# == pyFAI calibration ==
# SplineFile: None
# PixelSize: 1.000e-04, 1.000e-04 m
# PONI: 1.637e-01, 1.894e-01 m
# Distance Sample to Detector: 0.726000983619 m
# Rotations: -0.104720 0.000000 0.000000 rad
# 
# == Fit2d calibration ==
# Distance Sample-beamCenter: 730.000 mm
# Center: x=2657.000, y=1637.000 pix
# Tilt: 6.000 deg  TiltPlanRot: 0.000 deg
# 
# Wavelength: 7.09e-10
# Polarization factor: None
# Normalization factor: None
# --> OT-2015-07-02-tetradec-1800s.rgr
#       q_nm^-1              I           sigma 
  2.774242e-02    7.585085e+01   1.475756e+00
  3.138215e-02    5.826602e+01   8.137090e-01
  3.502188e-02    5.411384e+01   5.889220e-01
  3.866161e-02    3.994313e+01   3.989676e-01
  4.230134e-02    3.054984e+01   3.080375e-01
  4.594106e-02    2.529526e+01   2.547049e-01
  4.958079e-02    2.119469e+01   2.163493e-01
  5.322052e-02    1.748594e+01   1.747859e-01
  5.686025e-02    1.562438e+01   1.499297e-01
  6.049998e-02    1.394939e+01   1.337862e-01
  6.413970e-02    1.327627e+01   1.248276e-01
  6.777943e-02    1.239528e+01   1.167301e-01
  7.141916e-02    1.185818e+01   1.112138e-01
  7.505889e-02    1.137976e+01   1.058582e-01
  7.869862e-02    1.132893e+01   1.027122e-01
  8.233834e-02    1.060622e+01   9.679051e-02
  8.597807e-02    1.033449e+01   9.325749e-02
  8.961780e-02    1.024204e+01   9.066200e-02
  9.325753e-02    1.027607e+01   8.876253e-02
  9.689726e-02    1.032294e+01   8.704597e-02
  1.005370e-01    9.926508e+00   8.364011e-02
  1.041767e-01    9.670173e+00   8.093786e-02
  1.078164e-01    9.478647e+00   7.860181e-02
  1.114562e-01    9.514943e+00   7.730493e-02
  1.150959e-01    9.278515e+00   7.502855e-02
  1.187356e-01    9.486512e+00   7.457308e-02
  1.223754e-01    9.532083e+00   7.351475e-02
  1.260151e-01    9.544514e+00   7.238242e-02
  1.296548e-01    9.417667e+00   7.080480e-02
  1.332945e-01    9.403175e+00   6.970214e-02
  1.369343e-01    9.344190e+00   6.846264e-02
  1.405740e-01    9.742722e+00   6.891431e-02
  1.442137e-01    1.068609e+01   7.117873e-02
  1.478534e-01    1.385446e+01   7.997718e-02
  1.514932e-01    2.585323e+01   1.078088e-01
  1.551329e-01    4.737895e+01   1.440930e-01
  1.587726e-01    5.415332e+01   1.521640e-01
  1.624124e-01    3.819970e+01   1.263061e-01
  1.660521e-01    2.411593e+01   9.918380e-02
  1.696918e-01    1.813784e+01   8.503540e-02
  1.733315e-01    1.488534e+01   7.616815e-02
  1.769713e-01    1.303860e+01   7.052231e-02
  1.806110e-01    1.150664e+01   6.552625e-02
  1.842507e-01    1.083081e+01   6.288806e-02
  1.878905e-01    1.033816e+01   6.079492e-02
  1.915302e-01    1.005994e+01   5.937896e-02
  1.951699e-01    9.366623e+00   5.672132e-02
  1.988096e-01    9.053679e+00   5.521544e-02
  2.024494e-01    8.942168e+00   5.434551e-02
  2.060891e-01    8.957396e+00   5.388930e-02
  2.097288e-01    8.891324e+00   5.320049e-02
  2.133686e-01    8.912145e+00   5.277461e-02
  2.170083e-01    8.885404e+00   5.222236e-02
  2.206480e-01    8.866182e+00   5.171193e-02
  2.242877e-01    8.818723e+00   5.114218e-02
  2.279275e-01    8.853266e+00   5.080646e-02
  2.315672e-01    8.906613e+00   5.053062e-02
  2.352069e-01    8.738983e+00   4.964235e-02
  2.388467e-01    8.605009e+00   4.887499e-02
  2.424864e-01    8.778034e+00   4.897249e-02
  2.461261e-01    8.828169e+00   4.872820e-02
  2.497658e-01    8.705077e+00   4.801243e-02
  2.534056e-01    8.689084e+00   4.761475e-02
  2.570453e-01    8.619254e+00   4.706961e-02
  2.606850e-01    8.752510e+00   4.708119e-02
  2.643247e-01    8.644490e+00   4.644702e-02
  2.679645e-01    8.705732e+00   4.628816e-02
  2.716042e-01    8.553623e+00   4.555981e-02
  2.752439e-01    8.575974e+00   4.529931e-02
  2.788837e-01    8.618934e+00   4.509987e-02
  2.825234e-01    8.544255e+00   4.460225e-02
  2.861631e-01    8.648787e+00   4.457719e-02
  2.898028e-01    8.734148e+00   4.449819e-02
  2.934426e-01    8.698252e+00   4.411648e-02
  2.970823e-01    8.658656e+00   4.373303e-02
  3.007220e-01    8.660810e+00   4.346995e-02
  3.043618e-01    8.649938e+00   4.316920e-02
  3.080015e-01    9.068396e+00   4.392680e-02
  3.116412e-01    9.995509e+00   4.583242e-02
  3.152809e-01    1.024803e+01   4.613739e-02
  3.189207e-01    9.704386e+00   4.463111e-02
  3.225604e-01    9.159970e+00   4.309928e-02
  3.262001e-01    8.965211e+00   4.238708e-02
  3.298399e-01    8.880225e+00   4.194686e-02
  3.334796e-01    8.879477e+00   4.170959e-02
  3.371193e-01    8.778938e+00   4.123778e-02
  3.407590e-01    8.773023e+00   4.099362e-02
  3.443988e-01    8.750503e+00   4.071726e-02
  3.480385e-01    8.624926e+00   4.020350e-02
  3.516782e-01    8.612755e+00   3.995627e-02
  3.553179e-01    8.649340e+00   3.982462e-02
  3.589577e-01    8.691186e+00   3.971221e-02
  3.625974e-01    8.641379e+00   3.939544e-02
  3.662371e-01    8.731510e+00   3.939207e-02
  3.698769e-01    8.817338e+00   3.938024e-02
  3.735166e-01    8.867865e+00   3.929220e-02
  3.771563e-01    8.905469e+00   3.918349e-02
  3.807960e-01    9.045898e+00   3.929376e-02
  3.844358e-01    9.059468e+00   3.912678e-02
  3.880755e-01    9.264803e+00   3.937383e-02
  3.917152e-01    9.289942e+00   3.924032e-02
  3.953550e-01    9.311203e+00   3.909437e-02
  3.989947e-01    9.375656e+00   3.904347e-02
  4.026344e-01    9.437030e+00   3.899092e-02
  4.062741e-01    9.410788e+00   3.875827e-02
  4.099139e-01    9.433304e+00   3.862551e-02
  4.135536e-01    9.346164e+00   3.826722e-02
  4.171933e-01    9.185342e+00   3.776504e-02
  4.208331e-01    9.080825e+00   3.738098e-02
  4.244728e-01    9.033881e+00   3.711449e-02
  4.281125e-01    8.942082e+00   3.676135e-02
  4.317522e-01    8.911522e+00   3.653440e-02
  4.353920e-01    8.787946e+00   3.611768e-02
  4.390317e-01    8.641808e+00   3.566669e-02
  4.426714e-01    8.614040e+00   3.545818e-02
  4.463111e-01    8.483964e+00   3.503472e-02
  4.499509e-01    8.464997e+00   3.484318e-02
  4.535906e-01    8.543609e+00   3.485845e-02
  4.572303e-01    8.485858e+00   3.459572e-02
  4.608701e-01    8.616837e+00   3.470974e-02
  4.645098e-01    9.180634e+00   3.567808e-02
  4.681495e-01    1.041876e+01   3.785934e-02
  4.717892e-01    1.104637e+01   3.883311e-02
  4.754290e-01    1.025969e+01   3.727170e-02
  4.790687e-01    9.186888e+00   3.512615e-02
  4.827084e-01    8.711644e+00   3.406917e-02
  4.863482e-01    8.647142e+00   3.381161e-02
  4.899879e-01    8.634600e+00   3.365195e-02
  4.936276e-01    8.514667e+00   3.328903e-02
  4.972673e-01    8.417762e+00   3.297418e-02
  5.009071e-01    8.429969e+00   3.287072e-02
  5.045468e-01    8.272179e+00   3.243903e-02
  5.081865e-01    8.232943e+00   3.223948e-02
  5.118263e-01    8.207741e+00   3.206943e-02
  5.154660e-01    8.134007e+00   3.180880e-02
  5.191057e-01    8.111876e+00   3.164448e-02
  5.227454e-01    8.141130e+00   3.158633e-02
  5.263852e-01    8.166028e+00   3.151672e-02
  5.300249e-01    8.172251e+00   3.141499e-02
  5.336646e-01    8.057658e+00   3.108373e-02
  5.373043e-01    7.957721e+00   3.077992e-02
  5.409441e-01    7.967272e+00   3.068603e-02
  5.445838e-01    7.990111e+00   3.062613e-02
  5.482235e-01    7.930312e+00   3.040500e-02
  5.518633e-01    7.935000e+00   3.030412e-02
  5.555030e-01    7.954282e+00   3.023580e-02
  5.591427e-01    7.926767e+00   3.008201e-02
  5.627824e-01    7.854211e+00   2.984473e-02
  5.664222e-01    7.847017e+00   2.972726e-02
  5.700619e-01    7.727638e+00   2.939916e-02
  5.737016e-01    7.868287e+00   2.956701e-02
  5.773414e-01    7.816291e+00   2.937463e-02
  5.809811e-01    7.718552e+00   2.909120e-02
  5.846208e-01    7.693542e+00   2.895060e-02
  5.882605e-01    7.769496e+00   2.899733e-02
  5.919003e-01    7.838979e+00   2.903255e-02
  5.955400e-01    7.819912e+00   2.890427e-02
  5.991797e-01    7.742170e+00   2.866710e-02
  6.028195e-01    7.784088e+00   2.865326e-02
  6.064592e-01    7.823093e+00   2.863343e-02
  6.100989e-01    7.732335e+00   2.837824e-02
  6.137386e-01    7.769597e+00   2.835788e-02
  6.173784e-01    7.781730e+00   2.828689e-02
  6.210181e-01    7.866560e+00   2.835461e-02
  6.246578e-01    8.037396e+00   2.857359e-02
  6.282976e-01    8.174956e+00   2.872863e-02
  6.319373e-01    8.116608e+00   2.853806e-02
  6.355770e-01    7.931517e+00   2.812820e-02
  6.392167e-01    7.807416e+00   2.782475e-02
  6.428565e-01    7.804856e+00   2.773578e-02
  6.464962e-01    7.679601e+00   2.742883e-02
  6.501359e-01    7.701355e+00   2.738643e-02
  6.537756e-01    7.691340e+00   2.728964e-02
  6.574154e-01    7.629083e+00   2.709754e-02
  6.610551e-01    7.618878e+00   2.699804e-02
  6.646948e-01    7.656181e+00   2.698578e-02
  6.683346e-01    7.658502e+00   2.691148e-02
  6.719743e-01    7.593031e+00   2.671908e-02
  6.756140e-01    7.598695e+00   2.665271e-02
  6.792537e-01    7.656194e+00   2.667669e-02
  6.828935e-01    7.611022e+00   2.652459e-02
  6.865332e-01    7.545757e+00   2.633682e-02
  6.901729e-01    7.548035e+00   2.626789e-02
  6.938127e-01    7.461084e+00   2.604270e-02
  6.974524e-01    7.491591e+00   2.602052e-02
  7.010921e-01    7.492060e+00   2.595351e-02
  7.047318e-01    7.496974e+00   2.589260e-02
  7.083716e-01    7.515584e+00   2.584959e-02
  7.120113e-01    7.523060e+00   2.579319e-02
  7.156510e-01    7.508567e+00   2.570078e-02
  7.192908e-01    7.466866e+00   2.556020e-02
  7.229305e-01    7.491290e+00   2.553348e-02
  7.265702e-01    7.480199e+00   2.544569e-02
  7.302099e-01    7.488047e+00   2.539280e-02
  7.338497e-01    7.429210e+00   2.522480e-02
  7.374894e-01    7.448226e+00   2.518883e-02
  7.411291e-01    7.397948e+00   2.503816e-02
  7.447688e-01    7.462636e+00   2.508532e-02
  7.484086e-01    7.411979e+00   2.493293e-02
  7.520483e-01    7.416408e+00   2.487553e-02
  7.556880e-01    7.418393e+00   2.481586e-02
  7.593278e-01    7.400201e+00   2.472371e-02
  7.629675e-01    7.425642e+00   2.470322e-02
  7.666072e-01    7.402028e+00   2.460146e-02
  7.702469e-01    7.411187e+00   2.455473e-02
  7.738867e-01    7.354585e+00   2.439623e-02
  7.775264e-01    7.551029e+00   2.465512e-02
  7.811661e-01    7.653002e+00   2.475678e-02
  7.848059e-01    7.768363e+00   2.487737e-02
  7.884456e-01    7.727354e+00   2.474868e-02
  7.920853e-01    7.629798e+00   2.453182e-02
  7.957250e-01    7.548772e+00   2.433693e-02
  7.993648e-01    7.447365e+00   2.411009e-02
  8.030045e-01    7.401109e+00   2.397204e-02
  8.066442e-01    7.377465e+00   2.387379e-02
  8.102840e-01    7.397845e+00   2.384553e-02
  8.139237e-01    7.356288e+00   2.371610e-02
  8.175634e-01    7.380072e+00   2.370216e-02
  8.212031e-01    7.402712e+00   2.368838e-02
  8.248429e-01    7.408361e+00   2.364284e-02
  8.284826e-01    7.369709e+00   2.352886e-02
  8.321223e-01    7.330440e+00   2.341342e-02
  8.357620e-01    7.365040e+00   2.341924e-02
  8.394018e-01    7.397490e+00   2.342420e-02
  8.430415e-01    7.392220e+00   2.336392e-02
  8.466812e-01    7.363099e+00   2.327249e-02
  8.503210e-01    7.345856e+00   2.320047e-02
  8.539607e-01    7.324382e+00   2.311919e-02
  8.576004e-01    7.355134e+00   2.311877e-02
  8.612401e-01    7.337493e+00   2.304649e-02
  8.648799e-01    7.374935e+00   2.305742e-02
  8.685196e-01    7.307323e+00   2.290708e-02
  8.721593e-01    7.297068e+00   2.284199e-02
  8.757991e-01    7.373462e+00   2.291761e-02
  8.794388e-01    7.374118e+00   2.287279e-02
  8.830785e-01    7.346236e+00   2.283860e-02
  8.867182e-01    7.270376e+00   2.322528e-02
  8.903580e-01    7.279909e+00   2.357769e-02
  8.939977e-01    7.252911e+00   2.375586e-02
  8.976374e-01    7.296078e+00   2.399467e-02
  9.012772e-01    7.305506e+00   2.416985e-02
  9.049169e-01    7.273391e+00   2.425441e-02
  9.085566e-01    7.197076e+00   2.425569e-02
  9.121963e-01    7.229120e+00   2.441018e-02
  9.158361e-01    7.221786e+00   2.442763e-02
  9.194758e-01    7.237190e+00   2.473999e-02
  9.231155e-01    7.213675e+00   2.495884e-02
  9.267553e-01    7.221950e+00   2.508977e-02
  9.303950e-01    7.284965e+00   2.528480e-02
  9.340347e-01    7.399291e+00   2.555542e-02
  9.376744e-01    7.449412e+00   2.571197e-02
  9.413142e-01    7.522443e+00   2.589778e-02
  9.449539e-01    7.578116e+00   2.605315e-02
  9.485936e-01    7.517279e+00   2.600050e-02
  9.522333e-01    7.364494e+00   2.579375e-02
  9.558731e-01    7.307574e+00   2.575035e-02
  9.595128e-01    7.333470e+00   2.591545e-02
  9.631525e-01    7.272912e+00   2.587931e-02
  9.667923e-01    7.314097e+00   2.593028e-02
  9.704320e-01    7.301266e+00   2.588240e-02
  9.740717e-01    7.267900e+00   2.579467e-02
  9.777114e-01    7.299628e+00   2.582477e-02
  9.813512e-01    7.244359e+00   2.570229e-02
  9.849909e-01    7.295328e+00   2.576964e-02
  9.886306e-01    7.298031e+00   2.579097e-02
  9.922704e-01    7.333974e+00   2.587211e-02
  9.959101e-01    7.211059e+00   2.567418e-02
  9.995498e-01    7.314842e+00   2.587279e-02
  1.003190e+00    7.353030e+00   2.594782e-02
  1.006829e+00    7.445816e+00   2.612256e-02
  1.010469e+00    7.526056e+00   2.626761e-02
  1.014109e+00    7.541486e+00   2.630273e-02
  1.017748e+00    7.422853e+00   2.610563e-02
  1.021388e+00    7.290431e+00   2.587372e-02
  1.025028e+00    7.263110e+00   2.582646e-02
  1.028668e+00    7.217704e+00   2.574856e-02
  1.032307e+00    7.183004e+00   2.568748e-02
  1.035947e+00    7.168000e+00   2.565936e-02
  1.039587e+00    7.245372e+00   2.579811e-02
  1.043227e+00    7.233026e+00   2.577505e-02
  1.046866e+00    7.244740e+00   2.579069e-02
  1.050506e+00    7.271468e+00   2.583435e-02
  1.054146e+00    7.277708e+00   2.584366e-02
  1.057785e+00    7.305424e+00   2.589203e-02
  1.061425e+00    7.285041e+00   2.584822e-02
  1.065065e+00    7.178701e+00   2.565340e-02
  1.068705e+00    7.247797e+00   2.577103e-02
  1.072344e+00    7.213089e+00   2.570413e-02
  1.075984e+00    7.203286e+00   2.567754e-02
  1.079624e+00    7.216736e+00   2.569379e-02
  1.083264e+00    7.208570e+00   2.567040e-02
  1.086903e+00    7.220142e+00   2.568400e-02
  1.090543e+00    7.218683e+00   2.567243e-02
  1.094183e+00    7.308985e+00   2.582111e-02
  1.097822e+00    7.340504e+00   2.586810e-02
  1.101462e+00    7.464023e+00   2.607458e-02
  1.105102e+00    7.500442e+00   2.613022e-02
  1.108742e+00    7.461377e+00   2.604764e-02
  1.112381e+00    7.394967e+00   2.591891e-02
  1.116021e+00    7.294532e+00   2.573414e-02
  1.119661e+00    7.234142e+00   2.561372e-02
  1.123301e+00    7.250775e+00   2.563246e-02
  1.126940e+00    7.214940e+00   2.555325e-02
  1.130580e+00    7.242910e+00   2.558978e-02
  1.134220e+00    7.201909e+00   2.550490e-02
  1.137859e+00    7.237584e+00   2.555818e-02
  1.141499e+00    7.269130e+00   2.560065e-02
  1.145139e+00    7.264909e+00   2.557772e-02
  1.148779e+00    7.196739e+00   2.544567e-02
  1.152418e+00    7.219555e+00   2.547013e-02
  1.156058e+00    7.243650e+00   2.549811e-02
  1.159698e+00    7.261919e+00   2.551811e-02
  1.163338e+00    7.339321e+00   2.563505e-02
  1.166977e+00    7.262814e+00   2.548653e-02
  1.170617e+00    7.258227e+00   2.546326e-02
  1.174257e+00    7.281773e+00   2.549202e-02
  1.177896e+00    7.210227e+00   2.535390e-02
  1.181536e+00    7.234356e+00   2.537499e-02
  1.185176e+00    7.231939e+00   2.535599e-02
  1.188816e+00    7.246339e+00   2.537172e-02
  1.192455e+00    7.264626e+00   2.538600e-02
  1.196095e+00    7.188045e+00   2.523593e-02
  1.199735e+00    7.259443e+00   2.534611e-02
  1.203375e+00    7.250858e+00   2.532164e-02
  1.207014e+00    7.345511e+00   2.547307e-02
  1.210654e+00    7.402987e+00   2.556557e-02
  1.214294e+00    7.394100e+00   2.553894e-02
  1.217933e+00    7.335466e+00   2.542601e-02
  1.221573e+00    7.269144e+00   2.529963e-02
  1.225213e+00    7.310515e+00   2.535926e-02
  1.228853e+00    7.436090e+00   2.556707e-02
  1.232492e+00    7.490942e+00   2.564867e-02
  1.236132e+00    7.512875e+00   2.567686e-02
  1.239772e+00    7.531004e+00   2.569420e-02
  1.243412e+00    7.408887e+00   2.547227e-02
  1.247051e+00    7.342818e+00   2.534580e-02
  1.250691e+00    7.342574e+00   2.533301e-02
  1.254331e+00    7.423836e+00   2.546062e-02
  1.257971e+00    7.510057e+00   2.559312e-02
  1.261610e+00    7.624637e+00   2.577845e-02
  1.265250e+00    7.825946e+00   2.610132e-02
  1.268890e+00    7.878429e+00   2.617296e-02
  1.272529e+00    7.769016e+00   2.597619e-02
  1.276169e+00    7.702178e+00   2.585329e-02
  1.279809e+00    7.532460e+00   2.555199e-02
  1.283449e+00    7.392327e+00   2.530275e-02
  1.287088e+00    7.368484e+00   2.524632e-02
  1.290728e+00    7.335400e+00   2.517186e-02
  1.294368e+00    7.323792e+00   2.514161e-02
  1.298008e+00    7.288881e+00   2.508316e-02
  1.301647e+00    7.282092e+00   2.507234e-02
  1.305287e+00    7.308711e+00   2.511953e-02
  1.308927e+00    7.359952e+00   2.520472e-02
  1.312566e+00    7.390434e+00   2.525955e-02
  1.316206e+00    7.376744e+00   2.523275e-02
  1.319846e+00    7.407681e+00   2.528665e-02
  1.323486e+00    7.437397e+00   2.533499e-02
  1.327125e+00    7.491898e+00   2.542844e-02
  1.330765e+00    7.494412e+00   2.542662e-02
  1.334405e+00    7.403052e+00   2.526995e-02
  1.338045e+00    7.421125e+00   2.529829e-02
  1.341684e+00    7.372506e+00   2.521006e-02
  1.345324e+00    7.345178e+00   2.511857e-02
  1.348964e+00    7.252398e+00   2.456380e-02
  1.352603e+00    7.317307e+00   2.450774e-02
  1.356243e+00    7.294361e+00   2.438106e-02
  1.359883e+00    7.337762e+00   2.437862e-02
  1.363523e+00    7.398405e+00   2.441449e-02
  1.367162e+00    7.447982e+00   2.443343e-02
  1.370802e+00    7.475911e+00   2.443051e-02
  1.374442e+00    7.587324e+00   2.457041e-02
  1.378082e+00    7.528728e+00   2.446858e-02
  1.381721e+00    7.539536e+00   2.447681e-02
  1.385361e+00    7.451537e+00   2.432762e-02
  1.389001e+00    7.406739e+00   2.424997e-02
  1.392640e+00    7.328129e+00   2.411505e-02
  1.396280e+00    7.308144e+00   2.407263e-02
  1.399920e+00    7.291671e+00   2.403806e-02
  1.403560e+00    7.296186e+00   2.404248e-02
  1.407199e+00    7.277191e+00   2.400138e-02
  1.410839e+00    7.267334e+00   2.398085e-02
  1.414479e+00    7.342891e+00   2.409551e-02
  1.418119e+00    7.363071e+00   2.412046e-02
  1.421758e+00    7.398752e+00   2.417091e-02
  1.425398e+00    7.407023e+00   2.417717e-02
  1.429038e+00    7.385340e+00   2.413254e-02
  1.432677e+00    7.400994e+00   2.415087e-02
  1.436317e+00    7.462854e+00   2.424428e-02
  1.439957e+00    7.512138e+00   2.431364e-02
  1.443597e+00    7.567937e+00   2.439786e-02
  1.447236e+00    7.724648e+00   2.463633e-02
  1.450876e+00    7.804664e+00   2.475569e-02
  1.454516e+00    7.823010e+00   2.477887e-02
  1.458156e+00    7.813233e+00   2.475357e-02
  1.461795e+00    7.860388e+00   2.481750e-02
  1.465435e+00    7.916363e+00   2.490592e-02
  1.469075e+00    7.927956e+00   2.493024e-02
  1.472714e+00    8.053417e+00   2.512204e-02
  1.476354e+00    8.169291e+00   2.530664e-02
  1.479994e+00    8.272712e+00   2.546884e-02
  1.483634e+00    8.525065e+00   2.585160e-02
  1.487273e+00    9.257084e+00   2.693885e-02
  1.490913e+00    1.180120e+01   3.041245e-02
  1.494553e+00    1.819593e+01   3.776535e-02
  1.498193e+00    2.976562e+01   4.831390e-02
  1.501832e+00    4.159784e+01   5.712628e-02
  1.505472e+00    4.614593e+01   6.016841e-02
  1.509112e+00    4.360479e+01   5.849220e-02
  1.512751e+00    3.798947e+01   5.459677e-02
  1.516391e+00    2.949895e+01   4.811682e-02
  1.520031e+00    2.029269e+01   3.990735e-02
  1.523671e+00    1.471717e+01   3.397798e-02
  1.527310e+00    1.262430e+01   3.146081e-02
  1.530950e+00    1.226972e+01   3.101055e-02
  1.534590e+00    1.211690e+01   3.080850e-02
  1.538230e+00    1.197134e+01   3.062078e-02
  1.541869e+00    1.187901e+01   3.050173e-02
  1.545509e+00    1.169871e+01   3.026158e-02
  1.549149e+00    1.148098e+01   2.997776e-02
  1.552788e+00    1.150342e+01   3.000265e-02
  1.556428e+00    1.206062e+01   3.071383e-02
  1.560068e+00    1.284125e+01   3.168953e-02
  1.563708e+00    1.314509e+01   3.206083e-02
  1.567347e+00    1.323622e+01   3.216354e-02
  1.570987e+00    1.350955e+01   3.248875e-02
  1.574627e+00    1.335588e+01   3.230308e-02
  1.578267e+00    1.277273e+01   3.158284e-02
  1.581906e+00    1.233129e+01   3.102450e-02
  1.585546e+00    1.195170e+01   3.053756e-02
  1.589186e+00    1.150619e+01   2.996157e-02
  1.592825e+00    1.115554e+01   2.949231e-02
  1.596465e+00    1.089915e+01   2.914490e-02
  1.600105e+00    1.073967e+01   2.892552e-02
  1.603745e+00    1.063613e+01   2.877923e-02
  1.607384e+00    1.041407e+01   2.847056e-02
  1.611024e+00    1.027929e+01   2.827839e-02
  1.614664e+00    1.022929e+01   2.820209e-02
  1.618304e+00    1.008576e+01   2.799837e-02
  1.621943e+00    9.990719e+00   2.786089e-02
  1.625583e+00    9.879267e+00   2.769749e-02
  1.629223e+00    9.833720e+00   2.762931e-02
  1.632862e+00    9.666806e+00   2.738612e-02
  1.636502e+00    9.609532e+00   2.729551e-02
  1.640142e+00    9.435462e+00   2.704334e-02
  1.643782e+00    9.368269e+00   2.694860e-02
  1.647421e+00    9.230498e+00   2.675304e-02
  1.651061e+00    9.059624e+00   2.650627e-02
  1.654701e+00    9.042862e+00   2.648313e-02
  1.658341e+00    8.956152e+00   2.635847e-02
  1.661980e+00    8.886654e+00   2.625918e-02
  1.665620e+00    8.807699e+00   2.614282e-02
  1.669260e+00    8.836668e+00   2.618519e-02
  1.672900e+00    8.893692e+00   2.627076e-02
  1.676539e+00    9.081666e+00   2.655137e-02
  1.680179e+00    9.127635e+00   2.661631e-02
  1.683819e+00    9.430276e+00   2.705283e-02
  1.687458e+00    1.079233e+01   2.893705e-02
  1.691098e+00    1.487103e+01   3.397243e-02
  1.694738e+00    2.050933e+01   3.989736e-02
  1.698378e+00    2.184802e+01   4.118021e-02
  1.702017e+00    1.983121e+01   3.923550e-02
  1.705657e+00    1.947085e+01   3.887977e-02
  1.709297e+00    1.756488e+01   3.692655e-02
  1.712937e+00    1.360699e+01   3.250215e-02
  1.716576e+00    1.072299e+01   2.885071e-02
  1.720216e+00    9.452312e+00   2.708225e-02
  1.723856e+00    9.051455e+00   2.649947e-02
  1.727495e+00    8.847134e+00   2.619924e-02
  1.731135e+00    8.773950e+00   2.608758e-02
  1.734775e+00    8.775721e+00   2.608851e-02
  1.738415e+00    8.798065e+00   2.611942e-02
  1.742054e+00    8.843517e+00   2.618539e-02
  1.745694e+00    8.818935e+00   2.614772e-02
  1.749334e+00    8.786309e+00   2.609680e-02
  1.752974e+00    8.637745e+00   2.587734e-02
  1.756613e+00    8.601717e+00   2.582671e-02
  1.760253e+00    8.548751e+00   2.575254e-02
  1.763893e+00    8.481896e+00   2.565817e-02
  1.767532e+00    8.399610e+00   2.553607e-02
  1.771172e+00    8.382195e+00   2.550924e-02
  1.774812e+00    8.335557e+00   2.543933e-02
  1.778452e+00    8.363523e+00   2.548454e-02
  1.782091e+00    8.328063e+00   2.543501e-02
  1.785731e+00    8.407531e+00   2.555873e-02
  1.789371e+00    8.313741e+00   2.541635e-02
  1.793011e+00    8.296783e+00   2.539292e-02
  1.796650e+00    8.206282e+00   2.525639e-02
  1.800290e+00    8.236943e+00   2.530567e-02
  1.803930e+00    8.147702e+00   2.517028e-02
  1.807569e+00    8.066195e+00   2.504493e-02
  1.811209e+00    8.089586e+00   2.508064e-02
  1.814849e+00    8.044097e+00   2.500974e-02
  1.818489e+00    7.968414e+00   2.489323e-02
  1.822128e+00    7.901248e+00   2.479098e-02
  1.825768e+00    7.826769e+00   2.467347e-02
  1.829408e+00    7.814644e+00   2.465411e-02
  1.833048e+00    7.867038e+00   2.473731e-02
  1.836687e+00    7.869935e+00   2.474062e-02
  1.840327e+00    7.848779e+00   2.470815e-02
  1.843967e+00    7.792479e+00   2.462092e-02
  1.847606e+00    7.794380e+00   2.462190e-02
  1.851246e+00    7.765183e+00   2.457507e-02
  1.854886e+00    7.678279e+00   2.443662e-02
  1.858526e+00    7.607144e+00   2.432367e-02
  1.862165e+00    7.506885e+00   2.416274e-02
  1.865805e+00    7.429538e+00   2.403688e-02
  1.869445e+00    7.422640e+00   2.402281e-02
  1.873085e+00    7.410563e+00   2.400346e-02
  1.876724e+00    7.314409e+00   2.384556e-02
  1.880364e+00    7.264295e+00   2.376196e-02
  1.884004e+00    7.289302e+00   2.380102e-02
  1.887643e+00    7.348974e+00   2.389756e-02
  1.891283e+00    7.247808e+00   2.373010e-02
  1.894923e+00    7.210554e+00   2.366493e-02
  1.898563e+00    7.150031e+00   2.356336e-02
  1.902202e+00    7.158689e+00   2.357707e-02
  1.905842e+00    7.112910e+00   2.349816e-02
  1.909482e+00    7.048880e+00   2.339307e-02
  1.913122e+00    7.019519e+00   2.334212e-02
  1.916761e+00    7.001042e+00   2.330701e-02
  1.920401e+00    6.941219e+00   2.320449e-02
  1.924041e+00    6.936018e+00   2.319327e-02
  1.927680e+00    6.926503e+00   2.317595e-02
  1.931320e+00    6.915558e+00   2.315381e-02
  1.934960e+00    6.919268e+00   2.315650e-02
  1.938600e+00    6.914719e+00   2.314689e-02
  1.942239e+00    6.855101e+00   2.304285e-02
  1.945879e+00    6.899260e+00   2.311185e-02
  1.949519e+00    6.858013e+00   2.304335e-02
  1.953159e+00    6.790751e+00   2.292729e-02
  1.956798e+00    6.814068e+00   2.296219e-02
  1.960438e+00    6.746705e+00   2.284413e-02
  1.964078e+00    6.739738e+00   2.282906e-02
  1.967717e+00    6.782260e+00   2.289755e-02
  1.971357e+00    6.787295e+00   2.290616e-02
  1.974997e+00    6.845303e+00   2.299923e-02
  1.978637e+00    6.770032e+00   2.287002e-02
  1.982276e+00    6.876506e+00   2.304543e-02
  1.985916e+00    6.841568e+00   2.298216e-02
  1.989556e+00    6.797246e+00   2.290311e-02
  1.993196e+00    6.791383e+00   2.288899e-02
  1.996835e+00    6.794515e+00   2.289165e-02
  2.000475e+00    6.758712e+00   2.282865e-02
  2.004115e+00    6.763875e+00   2.283359e-02
  2.007754e+00    6.785261e+00   2.286490e-02
  2.011394e+00    6.802343e+00   2.288727e-02
  2.015034e+00    6.812797e+00   2.290274e-02
  2.018674e+00    6.768949e+00   2.282608e-02
  2.022313e+00    6.793424e+00   2.286167e-02
  2.025953e+00    6.731263e+00   2.275256e-02
  2.029593e+00    6.767736e+00   2.280911e-02
  2.033233e+00    6.669342e+00   2.263969e-02
  2.036872e+00    6.723071e+00   2.273592e-02
  2.040512e+00    6.679843e+00   2.267321e-02
  2.044152e+00    6.725037e+00   2.277234e-02
  2.047791e+00    6.733595e+00   2.280090e-02
  2.051431e+00    6.657461e+00   2.268891e-02
  2.055071e+00    6.726243e+00   2.282681e-02
  2.058711e+00    6.691830e+00   2.278148e-02
  2.062350e+00    6.727493e+00   2.286116e-02
  2.065990e+00    6.728736e+00   2.287911e-02
  2.069630e+00    6.720366e+00   2.287836e-02
  2.073270e+00    6.696271e+00   2.285551e-02
  2.076909e+00    6.695874e+00   2.286244e-02
  2.080549e+00    6.706296e+00   2.289354e-02
  2.084189e+00    6.696845e+00   2.289383e-02
  2.087828e+00    6.719328e+00   2.294354e-02
  2.091468e+00    6.754353e+00   2.301815e-02
  2.095108e+00    6.926720e+00   2.332568e-02
  2.098748e+00    7.100884e+00   2.362758e-02
  2.102387e+00    7.181184e+00   2.377618e-02
  2.106027e+00    7.174694e+00   2.378016e-02
  2.109667e+00    7.114306e+00   2.368928e-02
  2.113307e+00    7.172927e+00   2.380324e-02
  2.116946e+00    7.101964e+00   2.369848e-02
  2.120586e+00    6.953394e+00   2.345795e-02
  2.124226e+00    6.856823e+00   2.330244e-02
  2.127866e+00    6.752127e+00   2.313735e-02
  2.131505e+00    6.782031e+00   2.319592e-02
  2.135145e+00    6.768966e+00   2.318625e-02
  2.138785e+00    6.834665e+00   2.331080e-02
  2.142424e+00    6.819871e+00   2.329758e-02
  2.146064e+00    6.834391e+00   2.333069e-02
  2.149704e+00    6.829085e+00   2.333293e-02
  2.153344e+00    6.802714e+00   2.329798e-02
  2.156983e+00    6.775034e+00   2.325870e-02
  2.160623e+00    6.793998e+00   2.330230e-02
  2.164263e+00    6.696454e+00   2.314710e-02
  2.167903e+00    6.683481e+00   2.312906e-02
  2.171542e+00    6.730100e+00   2.321992e-02
  2.175182e+00    6.766286e+00   2.328781e-02
  2.178822e+00    6.683818e+00   2.315223e-02
  2.182461e+00    6.667126e+00   2.313033e-02
  2.186101e+00    6.695132e+00   2.319162e-02
  2.189741e+00    6.672770e+00   2.316182e-02
  2.193381e+00    6.668708e+00   2.315856e-02
  2.197020e+00    6.686013e+00   2.319815e-02
  2.200660e+00    6.757844e+00   2.333386e-02
  2.204300e+00    6.760739e+00   2.334356e-02
  2.207940e+00    6.746368e+00   2.332713e-02
  2.211579e+00    6.764487e+00   2.336770e-02
  2.215219e+00    6.711164e+00   2.328332e-02
  2.218859e+00    6.720947e+00   2.330470e-02
  2.222498e+00    6.762305e+00   2.338523e-02
  2.226138e+00    6.676244e+00   2.324344e-02
  2.229778e+00    6.672834e+00   2.323798e-02
  2.233418e+00    6.698108e+00   2.328805e-02
  2.237057e+00    6.665540e+00   2.324003e-02
  2.240697e+00    6.689105e+00   2.329016e-02
  2.244337e+00    6.709241e+00   2.332726e-02
  2.247977e+00    6.739345e+00   2.338852e-02
  2.251616e+00    6.758934e+00   2.343140e-02
  2.255256e+00    6.707191e+00   2.334718e-02
  2.258896e+00    6.690366e+00   2.332097e-02
  2.262535e+00    6.697783e+00   2.334250e-02
  2.266175e+00    6.672388e+00   2.330535e-02
  2.269815e+00    6.725203e+00   2.340360e-02
  2.273455e+00    6.795783e+00   2.352922e-02
  2.277094e+00    6.779003e+00   2.350706e-02
  2.280734e+00    6.787286e+00   2.352774e-02
  2.284374e+00    6.799626e+00   2.354703e-02
  2.288014e+00    6.752736e+00   2.347107e-02
  2.291653e+00    6.738287e+00   2.345161e-02
  2.295293e+00    6.731856e+00   2.344782e-02
  2.298933e+00    6.755215e+00   2.349133e-02
  2.302572e+00    6.715270e+00   2.342656e-02
  2.306212e+00    6.715846e+00   2.343452e-02
  2.309852e+00    6.693491e+00   2.339944e-02
  2.313492e+00    6.670644e+00   2.336053e-02
  2.317131e+00    6.687188e+00   2.339449e-02
  2.320771e+00    6.721252e+00   2.346077e-02
  2.324411e+00    6.720477e+00   2.346477e-02
  2.328051e+00    6.723313e+00   2.347178e-02
  2.331690e+00    6.684042e+00   2.340771e-02
  2.335330e+00    6.652890e+00   2.335632e-02
  2.338970e+00    6.666545e+00   2.338492e-02
  2.342609e+00    6.687894e+00   2.341938e-02
  2.346249e+00    6.629128e+00   2.332013e-02
  2.349889e+00    6.711251e+00   2.346936e-02
  2.353529e+00    6.778218e+00   2.359111e-02
  2.357168e+00    6.780333e+00   2.359556e-02
  2.360808e+00    6.765360e+00   2.357332e-02
  2.364448e+00    6.735670e+00   2.352669e-02
  2.368088e+00    6.749973e+00   2.355696e-02
  2.371727e+00    6.740487e+00   2.354090e-02
  2.375367e+00    6.696946e+00   2.346822e-02
  2.379007e+00    6.737311e+00   2.354248e-02
  2.382646e+00    6.745430e+00   2.356157e-02
  2.386286e+00    6.736719e+00   2.354755e-02
  2.389926e+00    6.717156e+00   2.351478e-02
  2.393566e+00    6.678491e+00   2.345150e-02
  2.397205e+00    6.711579e+00   2.351358e-02
  2.400845e+00    6.720512e+00   2.352910e-02
  2.404485e+00    6.776398e+00   2.362366e-02
  2.408125e+00    6.744071e+00   2.357139e-02
  2.411764e+00    6.810397e+00   2.369157e-02
  2.415404e+00    6.761935e+00   2.361060e-02
  2.419044e+00    6.751849e+00   2.359079e-02
  2.422683e+00    6.682731e+00   2.347348e-02
  2.426323e+00    6.724398e+00   2.354947e-02
  2.429963e+00    6.734231e+00   2.357023e-02
  2.433603e+00    6.682583e+00   2.347807e-02
  2.437242e+00    6.668279e+00   2.345538e-02
  2.440882e+00    6.700743e+00   2.351498e-02
  2.444522e+00    6.722864e+00   2.355748e-02
  2.448162e+00    6.737245e+00   2.358629e-02
  2.451801e+00    6.812358e+00   2.373164e-02
  2.455441e+00    6.891510e+00   2.388660e-02
  2.459081e+00    6.972619e+00   2.404407e-02
  2.462720e+00    7.303588e+00   2.462571e-02
  2.466360e+00    7.793275e+00   2.546007e-02
  2.470000e+00    8.075129e+00   2.594906e-02
  2.473640e+00    7.829534e+00   2.558339e-02
  2.477279e+00    7.652501e+00   2.532418e-02
  2.480919e+00    7.727431e+00   2.548067e-02
  2.484559e+00    7.819942e+00   2.566336e-02
  2.488199e+00    7.579779e+00   2.529500e-02
  2.491838e+00    7.366628e+00   2.496728e-02
  2.495478e+00    7.150784e+00   2.462809e-02
  2.499118e+00    6.935818e+00   2.428324e-02
  2.502757e+00    6.852036e+00   2.416181e-02
  2.506397e+00    6.839956e+00   2.416729e-02
  2.510037e+00    6.849307e+00   2.421299e-02
  2.513677e+00    6.824921e+00   2.419617e-02
  2.517316e+00    6.786171e+00   2.415303e-02
  2.520956e+00    6.748931e+00   2.411250e-02
  2.524596e+00    6.795825e+00   2.422286e-02
  2.528236e+00    6.801978e+00   2.425865e-02
  2.531875e+00    6.873487e+00   2.441153e-02
  2.535515e+00    6.823922e+00   2.435054e-02
  2.539155e+00    6.807694e+00   2.434609e-02
  2.542795e+00    6.861061e+00   2.446568e-02
  2.546434e+00    6.890849e+00   2.454518e-02
  2.550074e+00    6.913713e+00   2.461002e-02
  2.553714e+00    6.858165e+00   2.453424e-02
  2.557353e+00    6.857912e+00   2.455732e-02
  2.560993e+00    6.863230e+00   2.459179e-02
  2.564633e+00    6.942505e+00   2.475654e-02
  2.568273e+00    6.997185e+00   2.487748e-02
  2.571912e+00    6.945982e+00   2.480992e-02
  2.575552e+00    6.902445e+00   2.475409e-02
  2.579192e+00    6.890347e+00   2.475651e-02
  2.582832e+00    6.996545e+00   2.496837e-02
  2.586471e+00    6.975276e+00   2.495303e-02
  2.590111e+00    6.980522e+00   2.499643e-02
  2.593751e+00    6.943660e+00   2.501826e-02
  2.597390e+00    6.998682e+00   2.520286e-02
  2.601030e+00    7.023324e+00   2.532937e-02
  2.604670e+00    7.041707e+00   2.543821e-02
  2.608310e+00    7.102055e+00   2.562126e-02
  2.611949e+00    7.236560e+00   2.593571e-02
  2.615589e+00    7.282327e+00   2.608562e-02
  2.619229e+00    7.214053e+00   2.603087e-02
  2.622869e+00    7.110601e+00   2.590678e-02
  2.626508e+00    7.116949e+00   2.598307e-02
  2.630148e+00    7.096266e+00   2.600640e-02
  2.633788e+00    7.137050e+00   2.614145e-02
  2.637427e+00    7.157400e+00   2.623746e-02
  2.641067e+00    7.118494e+00   2.622269e-02
  2.644707e+00    7.129555e+00   2.629970e-02
  2.648347e+00    7.153915e+00   2.639919e-02
  2.651986e+00    7.108468e+00   2.637123e-02
  2.655626e+00    7.109341e+00   2.645587e-02
  2.659266e+00    7.087624e+00   2.653078e-02
  2.662906e+00    7.113376e+00   2.669050e-02
  2.666545e+00    7.037193e+00   2.665447e-02
  2.670185e+00    7.088961e+00   2.686731e-02
  2.673825e+00    7.043705e+00   2.689582e-02
  2.677464e+00    7.034703e+00   2.697953e-02
  2.681104e+00    7.229629e+00   2.745315e-02
  2.684744e+00    7.239109e+00   2.757050e-02
  2.688384e+00    7.264615e+00   2.771745e-02
  2.692023e+00    7.246930e+00   2.778801e-02
  2.695663e+00    7.202514e+00   2.780516e-02
  2.699303e+00    7.235564e+00   2.796354e-02
  2.702943e+00    7.206924e+00   2.800083e-02
  2.706582e+00    7.279966e+00   2.823434e-02
  2.710222e+00    7.329986e+00   2.842373e-02
  2.713862e+00    7.224316e+00   2.830737e-02
  2.717501e+00    7.204151e+00   2.836749e-02
  2.721141e+00    7.089153e+00   2.822778e-02
  2.724781e+00    7.086909e+00   2.831073e-02
  2.728421e+00    7.085577e+00   2.839414e-02
  2.732060e+00    7.055208e+00   2.841702e-02
  2.735700e+00    6.975747e+00   2.833917e-02
  2.739340e+00    6.960382e+00   2.839001e-02
  2.742980e+00    6.914371e+00   2.838693e-02
  2.746619e+00    6.934792e+00   2.851424e-02
  2.750259e+00    6.887670e+00   2.849767e-02
  2.753899e+00    6.937711e+00   2.868098e-02
  2.757538e+00    6.993167e+00   2.887542e-02
  2.761178e+00    7.052633e+00   2.907960e-02
  2.764818e+00    7.034685e+00   2.912299e-02
  2.768458e+00    6.964386e+00   2.905486e-02
  2.772097e+00    7.054287e+00   2.932577e-02
  2.775737e+00    7.189983e+00   2.969274e-02
  2.779377e+00    7.140258e+00   2.967065e-02
  2.783017e+00    7.130956e+00   2.972804e-02
  2.786656e+00    7.101003e+00   2.974344e-02
  2.790296e+00    7.058659e+00   2.973209e-02
  2.793936e+00    7.038218e+00   2.976693e-02
  2.797575e+00    7.101139e+00   2.997622e-02
  2.801215e+00    7.127695e+00   3.010811e-02
  2.804855e+00    7.023036e+00   2.996826e-02
  2.808495e+00    6.961914e+00   2.991893e-02
  2.812134e+00    6.969839e+00   3.001026e-02
  2.815774e+00    7.033478e+00   3.022425e-02
  2.819414e+00    7.029413e+00   3.029081e-02
  2.823054e+00    7.043234e+00   3.039572e-02
  2.826693e+00    7.208995e+00   3.082743e-02
  2.830333e+00    7.469361e+00   3.145679e-02
  2.833973e+00    7.744318e+00   3.210898e-02
  2.837612e+00    7.828176e+00   3.236272e-02
  2.841252e+00    7.739113e+00   3.226714e-02
  2.844892e+00    7.701821e+00   3.226889e-02
  2.848532e+00    7.849050e+00   3.265531e-02
  2.852171e+00    7.827026e+00   3.268757e-02
  2.855811e+00    7.664138e+00   3.242186e-02
  2.859451e+00    7.586967e+00   3.233714e-02
  2.863091e+00    7.487135e+00   3.220052e-02
  2.866730e+00    7.364778e+00   3.201193e-02
  2.870370e+00    7.292262e+00   3.192932e-02
  2.874010e+00    7.316662e+00   3.205784e-02
  2.877649e+00    7.291845e+00   3.208710e-02
  2.881289e+00    7.147759e+00   3.188193e-02
  2.884929e+00    7.033739e+00   3.176344e-02
  2.888569e+00    7.240005e+00   3.236609e-02
  2.892208e+00    7.185395e+00   3.274963e-02
  2.895848e+00    7.146826e+00   3.355634e-02
  2.899488e+00    7.200237e+00   3.425296e-02
  2.903128e+00    7.148678e+00   3.459881e-02
  2.906767e+00    7.135099e+00   3.501236e-02
  2.910407e+00    7.337014e+00   3.591761e-02
  2.914047e+00    7.345660e+00   3.632419e-02
  2.917686e+00    7.348939e+00   3.672039e-02
  2.921326e+00    7.162413e+00   3.662702e-02
  2.924966e+00    7.169111e+00   3.700850e-02
  2.928606e+00    7.174019e+00   3.736198e-02
  2.932245e+00    7.191528e+00   3.776626e-02
  2.935885e+00    7.142953e+00   3.799413e-02
  2.939525e+00    7.184558e+00   3.845885e-02
  2.943165e+00    7.251760e+00   3.898644e-02
  2.946804e+00    7.265344e+00   3.935510e-02
  2.950444e+00    7.190388e+00   3.950012e-02
  2.954084e+00    7.190616e+00   3.985320e-02
  2.957724e+00    7.055146e+00   3.982532e-02
  2.961363e+00    6.992826e+00   3.999778e-02
  2.965003e+00    7.016667e+00   4.041916e-02
  2.968643e+00    7.083778e+00   4.096274e-02
  2.972282e+00    7.241896e+00   4.176430e-02
  2.975922e+00    7.328257e+00   4.237762e-02
  2.979562e+00    7.286982e+00   4.262594e-02
  2.983202e+00    7.206987e+00   4.276222e-02
  2.986841e+00    7.107388e+00   4.286654e-02
  2.990481e+00    7.059684e+00   4.617810e-02
  2.994121e+00    7.225409e+00   4.917842e-02
  2.997761e+00    7.438350e+00   5.562451e-02
  3.001400e+00    7.558740e+00   6.346917e-02
  3.005040e+00    7.434180e+00   6.805868e-02
  3.008680e+00    7.314103e+00   7.305126e-02
  3.012319e+00    7.306526e+00   7.926763e-02
  3.015959e+00    7.208261e+00   8.595665e-02
  3.019599e+00    7.421348e+00   9.576686e-02
  3.023239e+00    7.402014e+00   1.068067e-01
  3.026878e+00    7.335935e+00   1.208655e-01
  3.030518e+00    7.275434e+00   1.430263e-01
  3.034158e+00    7.205262e+00   1.829488e-01
  3.037798e+00    6.525540e+00   2.681996e-01
  3.041437e+00    9.903304e+00   1.734521e+00
  3.045077e+00    0.000000e+00   0.000000e+00
  3.048717e+00    0.000000e+00   0.000000e+00
  3.052356e+00    0.000000e+00   0.000000e+00
  3.055996e+00    0.000000e+00   0.000000e+00
  3.059636e+00    0.000000e+00   0.000000e+00
  3.063276e+00    0.000000e+00   0.000000e+00
  3.066915e+00    0.000000e+00   0.000000e+00
  3.070555e+00    0.000000e+00   0.000000e+00
  3.074195e+00    0.000000e+00   0.000000e+00
  3.077835e+00    0.000000e+00   0.000000e+00
  3.081474e+00    0.000000e+00   0.000000e+00
  3.085114e+00    0.000000e+00   0.000000e+00
  3.088754e+00    0.000000e+00   0.000000e+00
  3.092393e+00    0.000000e+00   0.000000e+00
  3.096033e+00    0.000000e+00   0.000000e+00
  3.099673e+00    0.000000e+00   0.000000e+00
  3.103313e+00    0.000000e+00   0.000000e+00
  3.106952e+00    0.000000e+00   0.000000e+00
  3.110592e+00    0.000000e+00   0.000000e+00
  3.114232e+00    0.000000e+00   0.000000e+00
  3.117872e+00    0.000000e+00   0.000000e+00
  3.121511e+00    0.000000e+00   0.000000e+00
  3.125151e+00    0.000000e+00   0.000000e+00
  3.128791e+00    0.000000e+00   0.000000e+00
  3.132430e+00    0.000000e+00   0.000000e+00
  3.136070e+00    0.000000e+00   0.000000e+00
  3.139710e+00    0.000000e+00   0.000000e+00
  3.143350e+00    0.000000e+00   0.000000e+00
  3.146989e+00    0.000000e+00   0.000000e+00
  3.150629e+00    0.000000e+00   0.000000e+00
  3.154269e+00    0.000000e+00   0.000000e+00
  3.157909e+00    0.000000e+00   0.000000e+00
  3.161548e+00    0.000000e+00   0.000000e+00
  3.165188e+00    0.000000e+00   0.000000e+00
  3.168828e+00    0.000000e+00   0.000000e+00
  3.172467e+00    0.000000e+00   0.000000e+00
  3.176107e+00    0.000000e+00   0.000000e+00
  3.179747e+00    0.000000e+00   0.000000e+00
  3.183387e+00    0.000000e+00   0.000000e+00
  3.187026e+00    0.000000e+00   0.000000e+00
  3.190666e+00    0.000000e+00   0.000000e+00
  3.194306e+00    0.000000e+00   0.000000e+00
  3.197946e+00    0.000000e+00   0.000000e+00
  3.201585e+00    0.000000e+00   0.000000e+00
  3.205225e+00    0.000000e+00   0.000000e+00
  3.208865e+00    0.000000e+00   0.000000e+00
  3.212504e+00    0.000000e+00   0.000000e+00
  3.216144e+00    0.000000e+00   0.000000e+00
  3.219784e+00    0.000000e+00   0.000000e+00
  3.223424e+00    0.000000e+00   0.000000e+00
  3.227063e+00    0.000000e+00   0.000000e+00
  3.230703e+00    0.000000e+00   0.000000e+00
  3.234343e+00    0.000000e+00   0.000000e+00
  3.237983e+00    0.000000e+00   0.000000e+00
  3.241622e+00    0.000000e+00   0.000000e+00
  3.245262e+00    0.000000e+00   0.000000e+00
  3.248902e+00    0.000000e+00   0.000000e+00
  3.252541e+00    0.000000e+00   0.000000e+00
  3.256181e+00    0.000000e+00   0.000000e+00
  3.259821e+00    0.000000e+00   0.000000e+00
  3.263461e+00    0.000000e+00   0.000000e+00
  3.267100e+00    0.000000e+00   0.000000e+00
  3.270740e+00    0.000000e+00   0.000000e+00
  3.274380e+00    0.000000e+00   0.000000e+00
  3.278020e+00    0.000000e+00   0.000000e+00
  3.281659e+00    0.000000e+00   0.000000e+00
  3.285299e+00    0.000000e+00   0.000000e+00
  3.288939e+00    0.000000e+00   0.000000e+00
  3.292578e+00    0.000000e+00   0.000000e+00
  3.296218e+00    0.000000e+00   0.000000e+00
  3.299858e+00    0.000000e+00   0.000000e+00
  3.303498e+00    0.000000e+00   0.000000e+00
  3.307137e+00    0.000000e+00   0.000000e+00
  3.310777e+00    0.000000e+00   0.000000e+00
  3.314417e+00    0.000000e+00   0.000000e+00
  3.318057e+00    0.000000e+00   0.000000e+00
  3.321696e+00    0.000000e+00   0.000000e+00
  3.325336e+00    0.000000e+00   0.000000e+00
  3.328976e+00    0.000000e+00   0.000000e+00
  3.332615e+00    0.000000e+00   0.000000e+00
  3.336255e+00    0.000000e+00   0.000000e+00
  3.339895e+00    0.000000e+00   0.000000e+00
  3.343535e+00    0.000000e+00   0.000000e+00
  3.347174e+00    0.000000e+00   0.000000e+00
  3.350814e+00    0.000000e+00   0.000000e+00
  3.354454e+00    0.000000e+00   0.000000e+00
  3.358094e+00    0.000000e+00   0.000000e+00
  3.361733e+00    0.000000e+00   0.000000e+00
  3.365373e+00    0.000000e+00   0.000000e+00
  3.369013e+00    0.000000e+00   0.000000e+00
  3.372652e+00    0.000000e+00   0.000000e+00
  3.376292e+00    0.000000e+00   0.000000e+00
  3.379932e+00    0.000000e+00   0.000000e+00
  3.383572e+00    0.000000e+00   0.000000e+00
  3.387211e+00    0.000000e+00   0.000000e+00
  3.390851e+00    0.000000e+00   0.000000e+00
  3.394491e+00    0.000000e+00   0.000000e+00
  3.398131e+00    0.000000e+00   0.000000e+00
  3.401770e+00    0.000000e+00   0.000000e+00
  3.405410e+00    0.000000e+00   0.000000e+00
  3.409050e+00    0.000000e+00   0.000000e+00
  3.412690e+00    0.000000e+00   0.000000e+00
  3.416329e+00    0.000000e+00   0.000000e+00
  3.419969e+00    0.000000e+00   0.000000e+00
  3.423609e+00    0.000000e+00   0.000000e+00
  3.427248e+00    0.000000e+00   0.000000e+00
  3.430888e+00    0.000000e+00   0.000000e+00
  3.434528e+00    0.000000e+00   0.000000e+00
  3.438168e+00    0.000000e+00   0.000000e+00
  3.441807e+00    0.000000e+00   0.000000e+00
  3.445447e+00    0.000000e+00   0.000000e+00
  3.449087e+00    0.000000e+00   0.000000e+00
  3.452727e+00    0.000000e+00   0.000000e+00
  3.456366e+00    0.000000e+00   0.000000e+00
  3.460006e+00    0.000000e+00   0.000000e+00
  3.463646e+00    0.000000e+00   0.000000e+00
  3.467285e+00    0.000000e+00   0.000000e+00
  3.470925e+00    0.000000e+00   0.000000e+00
  3.474565e+00    0.000000e+00   0.000000e+00
  3.478205e+00    0.000000e+00   0.000000e+00
  3.481844e+00    0.000000e+00   0.000000e+00
  3.485484e+00    0.000000e+00   0.000000e+00
  3.489124e+00    0.000000e+00   0.000000e+00
  3.492764e+00    0.000000e+00   0.000000e+00
  3.496403e+00    0.000000e+00   0.000000e+00
  3.500043e+00    0.000000e+00   0.000000e+00
  3.503683e+00    0.000000e+00   0.000000e+00
  3.507322e+00    0.000000e+00   0.000000e+00
  3.510962e+00    0.000000e+00   0.000000e+00
  3.514602e+00    0.000000e+00   0.000000e+00
  3.518242e+00    0.000000e+00   0.000000e+00
  3.521881e+00    0.000000e+00   0.000000e+00
  3.525521e+00    0.000000e+00   0.000000e+00
  3.529161e+00    0.000000e+00   0.000000e+00
  3.532801e+00    0.000000e+00   0.000000e+00
  3.536440e+00    0.000000e+00   0.000000e+00
  3.540080e+00    0.000000e+00   0.000000e+00
  3.543720e+00    0.000000e+00   0.000000e+00
  3.547359e+00    0.000000e+00   0.000000e+00
  3.550999e+00    0.000000e+00   0.000000e+00
  3.554639e+00    0.000000e+00   0.000000e+00
  3.558279e+00    0.000000e+00   0.000000e+00
  3.561918e+00    0.000000e+00   0.000000e+00
  3.565558e+00    0.000000e+00   0.000000e+00
  3.569198e+00    0.000000e+00   0.000000e+00
  3.572838e+00    0.000000e+00   0.000000e+00
  3.576477e+00    0.000000e+00   0.000000e+00
  3.580117e+00    0.000000e+00   0.000000e+00
  3.583757e+00    0.000000e+00   0.000000e+00
  3.587396e+00    0.000000e+00   0.000000e+00
  3.591036e+00    0.000000e+00   0.000000e+00
  3.594676e+00    0.000000e+00   0.000000e+00
  3.598316e+00    0.000000e+00   0.000000e+00
  3.601955e+00    0.000000e+00   0.000000e+00
  3.605595e+00    0.000000e+00   0.000000e+00
  3.609235e+00    0.000000e+00   0.000000e+00
  3.612875e+00    0.000000e+00   0.000000e+00
  3.616514e+00    0.000000e+00   0.000000e+00
  3.620154e+00    0.000000e+00   0.000000e+00
  3.623794e+00    0.000000e+00   0.000000e+00
  3.627433e+00    0.000000e+00   0.000000e+00
  3.631073e+00    0.000000e+00   0.000000e+00
  3.634713e+00    0.000000e+00   0.000000e+00
  3.638353e+00    0.000000e+00   0.000000e+00
  3.641992e+00    0.000000e+00   0.000000e+00
  3.645632e+00    0.000000e+00   0.000000e+00
  3.649272e+00    0.000000e+00   0.000000e+00
  3.652912e+00    0.000000e+00   0.000000e+00
  3.656551e+00    0.000000e+00   0.000000e+00
  3.660191e+00    0.000000e+00   0.000000e+00
  3.663831e+00    0.000000e+00   0.000000e+00
