# == pyFAI calibration ==
# SplineFile: None
# PixelSize: 1.000e-04, 1.000e-04 m
# PONI: 1.637e-01, 1.894e-01 m
# Distance Sample to Detector: 0.726000983619 m
# Rotations: -0.104720 0.000000 0.000000 rad
# 
# == Fit2d calibration ==
# Distance Sample-beamCenter: 730.000 mm
# Center: x=2657.000, y=1637.000 pix
# Tilt: 6.000 deg  TiltPlanRot: 0.000 deg
# 
# Wavelength: 7.09e-10
# Polarization factor: None
# Normalization factor: None
# --> OT-2015-07-02-lupolen-1800s.rgr
#       q_nm^-1              I           sigma 
  2.774242e-02    4.925132e+02   3.760447e+00
  3.138215e-02    5.203449e+02   2.431642e+00
  3.502188e-02    5.256203e+02   1.835186e+00
  3.866161e-02    5.115002e+02   1.427537e+00
  4.230134e-02    4.903123e+02   1.233951e+00
  4.594106e-02    4.595316e+02   1.085546e+00
  4.958079e-02    4.163749e+02   9.589025e-01
  5.322052e-02    3.734467e+02   8.077659e-01
  5.686025e-02    3.260357e+02   6.849084e-01
  6.049998e-02    2.771355e+02   5.963565e-01
  6.413970e-02    2.301064e+02   5.197353e-01
  6.777943e-02    1.890425e+02   4.559205e-01
  7.141916e-02    1.524949e+02   3.988610e-01
  7.505889e-02    1.212339e+02   3.455602e-01
  7.869862e-02    9.665834e+01   3.000558e-01
  8.233834e-02    7.688475e+01   2.606313e-01
  8.597807e-02    6.188799e+01   2.282398e-01
  8.961780e-02    5.037495e+01   2.010856e-01
  9.325753e-02    4.259531e+01   1.807402e-01
  9.689726e-02    3.673425e+01   1.642248e-01
  1.005370e-01    3.213898e+01   1.505161e-01
  1.041767e-01    2.924828e+01   1.407734e-01
  1.078164e-01    2.725044e+01   1.332859e-01
  1.114562e-01    2.537489e+01   1.262544e-01
  1.150959e-01    2.308307e+01   1.183483e-01
  1.187356e-01    2.146485e+01   1.121837e-01
  1.223754e-01    2.001029e+01   1.065233e-01
  1.260151e-01    1.892935e+01   1.019433e-01
  1.296548e-01    1.763734e+01   9.690412e-02
  1.332945e-01    1.716037e+01   9.416945e-02
  1.369343e-01    1.595921e+01   8.948371e-02
  1.405740e-01    1.522144e+01   8.614893e-02
  1.442137e-01    1.445627e+01   8.280145e-02
  1.478534e-01    1.389064e+01   8.010636e-02
  1.514932e-01    1.324909e+01   7.720778e-02
  1.551329e-01    1.294299e+01   7.533396e-02
  1.587726e-01    1.266413e+01   7.359839e-02
  1.624124e-01    1.216415e+01   7.127880e-02
  1.660521e-01    1.193897e+01   6.977579e-02
  1.696918e-01    1.188054e+01   6.879548e-02
  1.733315e-01    1.159368e+01   6.718822e-02
  1.769713e-01    1.157145e+01   6.640503e-02
  1.806110e-01    1.119206e+01   6.460031e-02
  1.842507e-01    1.091169e+01   6.310836e-02
  1.878905e-01    1.089413e+01   6.239857e-02
  1.915302e-01    1.096041e+01   6.197252e-02
  1.951699e-01    1.068887e+01   6.058768e-02
  1.988096e-01    1.065654e+01   5.989978e-02
  2.024494e-01    1.058709e+01   5.913232e-02
  2.060891e-01    1.038896e+01   5.803215e-02
  2.097288e-01    1.048161e+01   5.775787e-02
  2.133686e-01    1.032185e+01   5.679403e-02
  2.170083e-01    1.037923e+01   5.644374e-02
  2.206480e-01    1.021880e+01   5.551445e-02
  2.242877e-01    1.027276e+01   5.519681e-02
  2.279275e-01    1.017386e+01   5.446349e-02
  2.315672e-01    1.017597e+01   5.401230e-02
  2.352069e-01    1.027415e+01   5.382924e-02
  2.388467e-01    1.009484e+01   5.293648e-02
  2.424864e-01    9.937942e+00   5.210699e-02
  2.461261e-01    9.849477e+00   5.146712e-02
  2.497658e-01    9.787670e+00   5.090671e-02
  2.534056e-01    9.743016e+00   5.041670e-02
  2.570453e-01    9.725527e+00   4.999578e-02
  2.606850e-01    9.772205e+00   4.974670e-02
  2.643247e-01    9.837491e+00   4.954806e-02
  2.679645e-01    9.652528e+00   4.873739e-02
  2.716042e-01    9.631819e+00   4.834324e-02
  2.752439e-01    9.586297e+00   4.789211e-02
  2.788837e-01    9.549061e+00   4.746982e-02
  2.825234e-01    9.697576e+00   4.751541e-02
  2.861631e-01    9.766456e+00   4.736974e-02
  2.898028e-01    9.639610e+00   4.674961e-02
  2.934426e-01    9.500280e+00   4.610488e-02
  2.970823e-01    9.546807e+00   4.592063e-02
  3.007220e-01    9.487055e+00   4.549719e-02
  3.043618e-01    9.586543e+00   4.544761e-02
  3.080015e-01    9.601083e+00   4.519740e-02
  3.116412e-01    9.446841e+00   4.455900e-02
  3.152809e-01    9.501722e+00   4.442533e-02
  3.189207e-01    9.394181e+00   4.390604e-02
  3.225604e-01    9.395471e+00   4.364596e-02
  3.262001e-01    9.380448e+00   4.335616e-02
  3.298399e-01    9.416359e+00   4.319328e-02
  3.334796e-01    9.329684e+00   4.274910e-02
  3.371193e-01    9.286819e+00   4.240891e-02
  3.407590e-01    9.416114e+00   4.246439e-02
  3.443988e-01    9.339485e+00   4.206329e-02
  3.480385e-01    9.163788e+00   4.143798e-02
  3.516782e-01    9.284648e+00   4.148558e-02
  3.553179e-01    9.248532e+00   4.118124e-02
  3.589577e-01    9.253207e+00   4.097356e-02
  3.625974e-01    9.227533e+00   4.070801e-02
  3.662371e-01    9.207981e+00   4.045260e-02
  3.698769e-01    9.267238e+00   4.037337e-02
  3.735166e-01    9.362303e+00   4.037264e-02
  3.771563e-01    9.242710e+00   3.991500e-02
  3.807960e-01    9.262457e+00   3.975833e-02
  3.844358e-01    9.179492e+00   3.938450e-02
  3.880755e-01    9.135896e+00   3.909799e-02
  3.917152e-01    9.182101e+00   3.900820e-02
  3.953550e-01    9.311392e+00   3.909519e-02
  3.989947e-01    9.319425e+00   3.892616e-02
  4.026344e-01    9.217168e+00   3.853371e-02
  4.062741e-01    9.180438e+00   3.827860e-02
  4.099139e-01    9.254543e+00   3.825829e-02
  4.135536e-01    9.206673e+00   3.798330e-02
  4.171933e-01    9.135080e+00   3.766023e-02
  4.208331e-01    9.128774e+00   3.747554e-02
  4.244728e-01    9.200775e+00   3.745506e-02
  4.281125e-01    9.131057e+00   3.714756e-02
  4.317522e-01    9.256473e+00   3.723832e-02
  4.353920e-01    9.307031e+00   3.717319e-02
  4.390317e-01    9.227486e+00   3.685306e-02
  4.426714e-01    9.275681e+00   3.679016e-02
  4.463111e-01    9.216866e+00   3.651370e-02
  4.499509e-01    9.103878e+00   3.613042e-02
  4.535906e-01    9.112570e+00   3.600070e-02
  4.572303e-01    9.173873e+00   3.597307e-02
  4.608701e-01    9.197939e+00   3.586610e-02
  4.645098e-01    9.038206e+00   3.540365e-02
  4.681495e-01    9.024770e+00   3.523709e-02
  4.717892e-01    9.009423e+00   3.506707e-02
  4.754290e-01    9.071980e+00   3.504320e-02
  4.790687e-01    9.131124e+00   3.501546e-02
  4.827084e-01    9.098244e+00   3.481548e-02
  4.863482e-01    9.026503e+00   3.454359e-02
  4.899879e-01    8.965566e+00   3.428920e-02
  4.936276e-01    9.164275e+00   3.453344e-02
  4.972673e-01    9.210458e+00   3.449063e-02
  5.009071e-01    9.146364e+00   3.423652e-02
  5.045468e-01    9.084554e+00   3.399129e-02
  5.081865e-01    9.071898e+00   3.383698e-02
  5.118263e-01    9.094110e+00   3.375222e-02
  5.154660e-01    9.138705e+00   3.371236e-02
  5.191057e-01    9.130612e+00   3.357253e-02
  5.227454e-01    9.113391e+00   3.341603e-02
  5.263852e-01    9.069828e+00   3.321429e-02
  5.300249e-01    9.101783e+00   3.315320e-02
  5.336646e-01    9.108099e+00   3.304704e-02
  5.373043e-01    9.059802e+00   3.284320e-02
  5.409441e-01    9.095803e+00   3.278660e-02
  5.445838e-01    9.169936e+00   3.280902e-02
  5.482235e-01    9.124467e+00   3.261504e-02
  5.518633e-01    9.108439e+00   3.246720e-02
  5.555030e-01    9.088840e+00   3.231865e-02
  5.591427e-01    9.074082e+00   3.218247e-02
  5.627824e-01    9.051748e+00   3.203655e-02
  5.664222e-01    9.088705e+00   3.198873e-02
  5.700619e-01    9.095144e+00   3.189600e-02
  5.737016e-01    9.018820e+00   3.165668e-02
  5.773414e-01    9.097332e+00   3.169049e-02
  5.809811e-01    9.063175e+00   3.152366e-02
  5.846208e-01    9.120797e+00   3.152039e-02
  5.882605e-01    9.075737e+00   3.133803e-02
  5.919003e-01    9.119928e+00   3.131470e-02
  5.955400e-01    9.081105e+00   3.114742e-02
  5.991797e-01    9.184958e+00   3.122485e-02
  6.028195e-01    9.103688e+00   3.098519e-02
  6.064592e-01    9.052341e+00   3.080079e-02
  6.100989e-01    9.102594e+00   3.078783e-02
  6.137386e-01    9.181660e+00   3.082691e-02
  6.173784e-01    9.145519e+00   3.066837e-02
  6.210181e-01    9.133206e+00   3.055082e-02
  6.246578e-01    9.111933e+00   3.042432e-02
  6.282976e-01    9.133108e+00   3.036690e-02
  6.319373e-01    9.105143e+00   3.022662e-02
  6.355770e-01    9.099305e+00   3.012477e-02
  6.392167e-01    9.142766e+00   3.010786e-02
  6.428565e-01    9.099507e+00   2.994629e-02
  6.464962e-01    9.133069e+00   2.990868e-02
  6.501359e-01    9.069950e+00   2.971916e-02
  6.537756e-01    9.104454e+00   2.969004e-02
  6.574154e-01    9.101413e+00   2.959506e-02
  6.610551e-01    9.132661e+00   2.955780e-02
  6.646948e-01    9.109937e+00   2.943717e-02
  6.683346e-01    9.157736e+00   2.943266e-02
  6.719743e-01    9.094659e+00   2.924359e-02
  6.756140e-01    9.132940e+00   2.922157e-02
  6.792537e-01    9.113457e+00   2.911012e-02
  6.828935e-01    9.031624e+00   2.889609e-02
  6.865332e-01    9.110430e+00   2.894157e-02
  6.901729e-01    9.093727e+00   2.883386e-02
  6.938127e-01    9.168469e+00   2.887206e-02
  6.974524e-01    9.167408e+00   2.878992e-02
  7.010921e-01    9.138219e+00   2.866662e-02
  7.047318e-01    9.205030e+00   2.869086e-02
  7.083716e-01    9.133793e+00   2.849988e-02
  7.120113e-01    9.077345e+00   2.833562e-02
  7.156510e-01    9.155676e+00   2.838311e-02
  7.192908e-01    9.206939e+00   2.838557e-02
  7.229305e-01    9.174604e+00   2.825548e-02
  7.265702e-01    9.268469e+00   2.832551e-02
  7.302099e-01    9.213227e+00   2.816740e-02
  7.338497e-01    9.187278e+00   2.805272e-02
  7.374894e-01    9.216566e+00   2.802366e-02
  7.411291e-01    9.208424e+00   2.793834e-02
  7.447688e-01    9.244760e+00   2.792325e-02
  7.484086e-01    9.329904e+00   2.797415e-02
  7.520483e-01    9.253836e+00   2.778782e-02
  7.556880e-01    9.239846e+00   2.769558e-02
  7.593278e-01    9.143442e+00   2.748086e-02
  7.629675e-01    9.218455e+00   2.752354e-02
  7.666072e-01    9.233601e+00   2.747744e-02
  7.702469e-01    9.216228e+00   2.738230e-02
  7.738867e-01    9.222207e+00   2.731963e-02
  7.775264e-01    9.297395e+00   2.736077e-02
  7.811661e-01    9.346745e+00   2.736240e-02
  7.848059e-01    9.303459e+00   2.722609e-02
  7.884456e-01    9.322734e+00   2.718507e-02
  7.920853e-01    9.294577e+00   2.707738e-02
  7.957250e-01    9.296382e+00   2.700983e-02
  7.993648e-01    9.354242e+00   2.702382e-02
  8.030045e-01    9.269906e+00   2.683158e-02
  8.066442e-01    9.338789e+00   2.686188e-02
  8.102840e-01    9.224918e+00   2.662846e-02
  8.139237e-01    9.289411e+00   2.665531e-02
  8.175634e-01    9.305074e+00   2.661760e-02
  8.212031e-01    9.360525e+00   2.663788e-02
  8.248429e-01    9.408059e+00   2.664290e-02
  8.284826e-01    9.446074e+00   2.663844e-02
  8.321223e-01    9.450412e+00   2.658565e-02
  8.357620e-01    9.451890e+00   2.653053e-02
  8.394018e-01    9.481231e+00   2.652165e-02
  8.430415e-01    9.466742e+00   2.644565e-02
  8.466812e-01    9.469521e+00   2.639610e-02
  8.503210e-01    9.464251e+00   2.633490e-02
  8.539607e-01    9.500196e+00   2.633161e-02
  8.576004e-01    9.524413e+00   2.631218e-02
  8.612401e-01    9.523136e+00   2.625835e-02
  8.648799e-01    9.565498e+00   2.626565e-02
  8.685196e-01    9.585562e+00   2.623791e-02
  8.721593e-01    9.611922e+00   2.622287e-02
  8.757991e-01    9.652002e+00   2.622648e-02
  8.794388e-01    9.654752e+00   2.617780e-02
  8.830785e-01    9.633751e+00   2.615946e-02
  8.867182e-01    9.633696e+00   2.674073e-02
  8.903580e-01    9.657873e+00   2.716187e-02
  8.939977e-01    9.655904e+00   2.741578e-02
  8.976374e-01    9.703768e+00   2.767734e-02
  9.012772e-01    9.790411e+00   2.798805e-02
  9.049169e-01    9.769864e+00   2.812186e-02
  9.085566e-01    9.687016e+00   2.814813e-02
  9.121963e-01    9.683279e+00   2.825737e-02
  9.158361e-01    9.804265e+00   2.847143e-02
  9.194758e-01    9.816680e+00   2.882108e-02
  9.231155e-01    9.799877e+00   2.909843e-02
  9.267553e-01    9.853326e+00   2.931592e-02
  9.303950e-01    9.768775e+00   2.928647e-02
  9.340347e-01    9.848435e+00   2.948672e-02
  9.376744e-01    9.780577e+00   2.946508e-02
  9.413142e-01    9.804365e+00   2.956731e-02
  9.449539e-01    9.925783e+00   2.981760e-02
  9.485936e-01    9.913761e+00   2.985950e-02
  9.522333e-01    9.862329e+00   2.985063e-02
  9.558731e-01    9.926214e+00   3.001344e-02
  9.595128e-01    9.954874e+00   3.019877e-02
  9.631525e-01    9.975520e+00   3.031578e-02
  9.667923e-01    1.001120e+01   3.034057e-02
  9.704320e-01    1.003467e+01   3.034597e-02
  9.740717e-01    9.980597e+00   3.023308e-02
  9.777114e-01    1.012038e+01   3.041190e-02
  9.813512e-01    1.012055e+01   3.038066e-02
  9.849909e-01    1.011050e+01   3.033784e-02
  9.886306e-01    1.013049e+01   3.038983e-02
  9.922704e-01    1.029471e+01   3.065607e-02
  9.959101e-01    1.027457e+01   3.064833e-02
  9.995498e-01    1.031789e+01   3.072770e-02
  1.003190e+00    1.039813e+01   3.086152e-02
  1.006829e+00    1.033425e+01   3.078420e-02
  1.010469e+00    1.040164e+01   3.088892e-02
  1.014109e+00    1.050883e+01   3.105698e-02
  1.017748e+00    1.043767e+01   3.096078e-02
  1.021388e+00    1.052206e+01   3.108762e-02
  1.025028e+00    1.048123e+01   3.103054e-02
  1.028668e+00    1.052769e+01   3.110501e-02
  1.032307e+00    1.058438e+01   3.119116e-02
  1.035947e+00    1.069264e+01   3.134791e-02
  1.039587e+00    1.073440e+01   3.140989e-02
  1.043227e+00    1.079988e+01   3.150543e-02
  1.046866e+00    1.079772e+01   3.149722e-02
  1.050506e+00    1.094891e+01   3.171084e-02
  1.054146e+00    1.083363e+01   3.154122e-02
  1.057785e+00    1.103212e+01   3.182699e-02
  1.061425e+00    1.110499e+01   3.192013e-02
  1.065065e+00    1.104802e+01   3.183053e-02
  1.068705e+00    1.104434e+01   3.181833e-02
  1.072344e+00    1.118558e+01   3.201672e-02
  1.075984e+00    1.117248e+01   3.198878e-02
  1.079624e+00    1.122338e+01   3.204775e-02
  1.083264e+00    1.122388e+01   3.204066e-02
  1.086903e+00    1.135616e+01   3.221938e-02
  1.090543e+00    1.138574e+01   3.224816e-02
  1.094183e+00    1.139596e+01   3.224806e-02
  1.097822e+00    1.148166e+01   3.235821e-02
  1.101462e+00    1.157513e+01   3.247682e-02
  1.105102e+00    1.157237e+01   3.246015e-02
  1.108742e+00    1.170867e+01   3.263544e-02
  1.112381e+00    1.181260e+01   3.276442e-02
  1.116021e+00    1.184925e+01   3.280261e-02
  1.119661e+00    1.191761e+01   3.288336e-02
  1.123301e+00    1.192875e+01   3.288316e-02
  1.126940e+00    1.209912e+01   3.310018e-02
  1.130580e+00    1.220053e+01   3.322067e-02
  1.134220e+00    1.222767e+01   3.324339e-02
  1.137859e+00    1.234029e+01   3.337814e-02
  1.141499e+00    1.235991e+01   3.338916e-02
  1.145139e+00    1.245076e+01   3.349136e-02
  1.148779e+00    1.252462e+01   3.357454e-02
  1.152418e+00    1.253892e+01   3.357483e-02
  1.156058e+00    1.261345e+01   3.365793e-02
  1.159698e+00    1.282257e+01   3.391696e-02
  1.163338e+00    1.285951e+01   3.394357e-02
  1.166977e+00    1.286100e+01   3.392523e-02
  1.170617e+00    1.299250e+01   3.407863e-02
  1.174257e+00    1.317225e+01   3.429504e-02
  1.177896e+00    1.325611e+01   3.438426e-02
  1.181536e+00    1.329944e+01   3.441837e-02
  1.185176e+00    1.342572e+01   3.455970e-02
  1.188816e+00    1.353063e+01   3.467500e-02
  1.192455e+00    1.362610e+01   3.477377e-02
  1.196095e+00    1.380438e+01   3.498083e-02
  1.199735e+00    1.385778e+01   3.502793e-02
  1.203375e+00    1.386947e+01   3.502745e-02
  1.207014e+00    1.402347e+01   3.520637e-02
  1.210654e+00    1.422369e+01   3.544723e-02
  1.214294e+00    1.432437e+01   3.555777e-02
  1.217933e+00    1.439503e+01   3.563065e-02
  1.221573e+00    1.452903e+01   3.578101e-02
  1.225213e+00    1.464917e+01   3.590904e-02
  1.228853e+00    1.475455e+01   3.602450e-02
  1.232492e+00    1.496878e+01   3.626600e-02
  1.236132e+00    1.515155e+01   3.647125e-02
  1.239772e+00    1.517034e+01   3.647878e-02
  1.243412e+00    1.531466e+01   3.663293e-02
  1.247051e+00    1.536255e+01   3.667031e-02
  1.250691e+00    1.555280e+01   3.687933e-02
  1.254331e+00    1.567004e+01   3.699969e-02
  1.257971e+00    1.577780e+01   3.710700e-02
  1.261610e+00    1.585993e+01   3.718893e-02
  1.265250e+00    1.603915e+01   3.737629e-02
  1.268890e+00    1.630155e+01   3.766061e-02
  1.272529e+00    1.656981e+01   3.794724e-02
  1.276169e+00    1.671086e+01   3.809323e-02
  1.279809e+00    1.662292e+01   3.797293e-02
  1.283449e+00    1.683146e+01   3.818775e-02
  1.287088e+00    1.712256e+01   3.849437e-02
  1.290728e+00    1.726961e+01   3.863642e-02
  1.294368e+00    1.733393e+01   3.869395e-02
  1.298008e+00    1.751923e+01   3.889833e-02
  1.301647e+00    1.769447e+01   3.909381e-02
  1.305287e+00    1.796477e+01   3.939507e-02
  1.308927e+00    1.798118e+01   3.941204e-02
  1.312566e+00    1.818792e+01   3.963815e-02
  1.316206e+00    1.827665e+01   3.972848e-02
  1.319846e+00    1.845746e+01   3.992784e-02
  1.323486e+00    1.851531e+01   3.998545e-02
  1.327125e+00    1.866251e+01   4.014923e-02
  1.330765e+00    1.901024e+01   4.051083e-02
  1.334405e+00    1.911736e+01   4.062002e-02
  1.338045e+00    1.930201e+01   4.081154e-02
  1.341684e+00    1.940475e+01   4.091320e-02
  1.345324e+00    1.964843e+01   4.109600e-02
  1.348964e+00    1.982205e+01   4.062673e-02
  1.352603e+00    2.020978e+01   4.074492e-02
  1.356243e+00    2.037109e+01   4.075997e-02
  1.359883e+00    2.048269e+01   4.074357e-02
  1.363523e+00    2.063185e+01   4.078685e-02
  1.367162e+00    2.070791e+01   4.075869e-02
  1.370802e+00    2.085896e+01   4.081963e-02
  1.374442e+00    2.107279e+01   4.096010e-02
  1.378082e+00    2.123407e+01   4.110452e-02
  1.381721e+00    2.140531e+01   4.126191e-02
  1.385361e+00    2.147939e+01   4.131927e-02
  1.389001e+00    2.142789e+01   4.125966e-02
  1.392640e+00    2.167882e+01   4.149217e-02
  1.396280e+00    2.174048e+01   4.153940e-02
  1.399920e+00    2.202115e+01   4.179428e-02
  1.403560e+00    2.188872e+01   4.166069e-02
  1.407199e+00    2.206671e+01   4.181143e-02
  1.410839e+00    2.216556e+01   4.189695e-02
  1.414479e+00    2.221675e+01   4.192953e-02
  1.418119e+00    2.233520e+01   4.202486e-02
  1.421758e+00    2.250327e+01   4.216927e-02
  1.425398e+00    2.262217e+01   4.226661e-02
  1.429038e+00    2.267537e+01   4.230373e-02
  1.432677e+00    2.278755e+01   4.239467e-02
  1.436317e+00    2.299073e+01   4.257247e-02
  1.439957e+00    2.308887e+01   4.264285e-02
  1.443597e+00    2.336984e+01   4.289211e-02
  1.447236e+00    2.366194e+01   4.314005e-02
  1.450876e+00    2.387279e+01   4.331379e-02
  1.454516e+00    2.427114e+01   4.366114e-02
  1.458156e+00    2.478057e+01   4.410200e-02
  1.461795e+00    2.518455e+01   4.443981e-02
  1.465435e+00    2.593641e+01   4.509666e-02
  1.469075e+00    2.670725e+01   4.577244e-02
  1.472714e+00    2.746120e+01   4.640951e-02
  1.476354e+00    2.846401e+01   4.725444e-02
  1.479994e+00    2.977608e+01   4.833669e-02
  1.483634e+00    3.157348e+01   4.977155e-02
  1.487273e+00    3.412341e+01   5.174493e-02
  1.490913e+00    3.776015e+01   5.443408e-02
  1.494553e+00    4.253832e+01   5.777069e-02
  1.498193e+00    4.884326e+01   6.190722e-02
  1.501832e+00    5.575163e+01   6.614345e-02
  1.505472e+00    6.261769e+01   7.009652e-02
  1.509112e+00    6.788740e+01   7.298650e-02
  1.512751e+00    7.054762e+01   7.440384e-02
  1.516391e+00    7.018516e+01   7.421566e-02
  1.520031e+00    6.758785e+01   7.282515e-02
  1.523671e+00    6.271019e+01   7.014509e-02
  1.527310e+00    5.690100e+01   6.681865e-02
  1.530950e+00    5.067689e+01   6.305283e-02
  1.534590e+00    4.482752e+01   5.929048e-02
  1.538230e+00    4.009619e+01   5.607285e-02
  1.541869e+00    3.634642e+01   5.337885e-02
  1.545509e+00    3.352752e+01   5.125599e-02
  1.549149e+00    3.172508e+01   4.985107e-02
  1.552788e+00    3.047846e+01   4.885669e-02
  1.556428e+00    2.954556e+01   4.809007e-02
  1.560068e+00    2.895507e+01   4.759934e-02
  1.563708e+00    2.853835e+01   4.725612e-02
  1.567347e+00    2.829329e+01   4.704017e-02
  1.570987e+00    2.831426e+01   4.704980e-02
  1.574627e+00    2.800229e+01   4.678408e-02
  1.578267e+00    2.789446e+01   4.668594e-02
  1.581906e+00    2.761779e+01   4.644365e-02
  1.585546e+00    2.746410e+01   4.630580e-02
  1.589186e+00    2.722776e+01   4.610057e-02
  1.592825e+00    2.703772e+01   4.592837e-02
  1.596465e+00    2.679335e+01   4.570788e-02
  1.600105e+00    2.633053e+01   4.530392e-02
  1.603745e+00    2.609966e+01   4.509766e-02
  1.607384e+00    2.590355e+01   4.491982e-02
  1.611024e+00    2.548785e+01   4.454681e-02
  1.614664e+00    2.501374e+01   4.411963e-02
  1.618304e+00    2.477675e+01   4.390330e-02
  1.621943e+00    2.445883e+01   4.360721e-02
  1.625583e+00    2.422331e+01   4.338644e-02
  1.629223e+00    2.413741e+01   4.329961e-02
  1.632862e+00    2.424317e+01   4.338201e-02
  1.636502e+00    2.425188e+01   4.338090e-02
  1.640142e+00    2.452168e+01   4.360924e-02
  1.643782e+00    2.486604e+01   4.391710e-02
  1.647421e+00    2.548036e+01   4.445833e-02
  1.651061e+00    2.594170e+01   4.486254e-02
  1.654701e+00    2.635168e+01   4.521738e-02
  1.658341e+00    2.691899e+01   4.570982e-02
  1.661980e+00    2.717076e+01   4.592517e-02
  1.665620e+00    2.738061e+01   4.610759e-02
  1.669260e+00    2.760086e+01   4.629363e-02
  1.672900e+00    2.741230e+01   4.613848e-02
  1.676539e+00    2.697056e+01   4.577159e-02
  1.680179e+00    2.641718e+01   4.529734e-02
  1.683819e+00    2.575399e+01   4.472559e-02
  1.687458e+00    2.489484e+01   4.397450e-02
  1.691098e+00    2.397612e+01   4.315959e-02
  1.694738e+00    2.319018e+01   4.244326e-02
  1.698378e+00    2.233089e+01   4.164762e-02
  1.702017e+00    2.125281e+01   4.062986e-02
  1.705657e+00    2.047125e+01   3.987380e-02
  1.709297e+00    1.943455e+01   3.884749e-02
  1.712937e+00    1.877883e+01   3.818721e-02
  1.716576e+00    1.820050e+01   3.759187e-02
  1.720216e+00    1.766427e+01   3.703233e-02
  1.723856e+00    1.713657e+01   3.647027e-02
  1.727495e+00    1.670950e+01   3.601234e-02
  1.731135e+00    1.639808e+01   3.567331e-02
  1.734775e+00    1.598340e+01   3.521479e-02
  1.738415e+00    1.562109e+01   3.480616e-02
  1.742054e+00    1.540320e+01   3.456432e-02
  1.745694e+00    1.521509e+01   3.435150e-02
  1.749334e+00    1.491567e+01   3.400960e-02
  1.752974e+00    1.469952e+01   3.376466e-02
  1.756613e+00    1.460264e+01   3.365726e-02
  1.760253e+00    1.439376e+01   3.342216e-02
  1.763893e+00    1.418691e+01   3.318838e-02
  1.767532e+00    1.390001e+01   3.285336e-02
  1.771172e+00    1.394581e+01   3.290884e-02
  1.774812e+00    1.374323e+01   3.267058e-02
  1.778452e+00    1.351802e+01   3.240484e-02
  1.782091e+00    1.339016e+01   3.225714e-02
  1.785731e+00    1.324961e+01   3.209113e-02
  1.789371e+00    1.300383e+01   3.179424e-02
  1.793011e+00    1.285047e+01   3.160531e-02
  1.796650e+00    1.273823e+01   3.146876e-02
  1.800290e+00    1.255613e+01   3.124692e-02
  1.803930e+00    1.236236e+01   3.100619e-02
  1.807569e+00    1.231143e+01   3.094418e-02
  1.811209e+00    1.218804e+01   3.078757e-02
  1.814849e+00    1.208828e+01   3.066363e-02
  1.818489e+00    1.198512e+01   3.053363e-02
  1.822128e+00    1.181821e+01   3.032169e-02
  1.825768e+00    1.165707e+01   3.011419e-02
  1.829408e+00    1.156300e+01   2.999153e-02
  1.833048e+00    1.142478e+01   2.981291e-02
  1.836687e+00    1.128231e+01   2.962351e-02
  1.840327e+00    1.113763e+01   2.943367e-02
  1.843967e+00    1.100717e+01   2.926237e-02
  1.847606e+00    1.093102e+01   2.915894e-02
  1.851246e+00    1.079405e+01   2.897607e-02
  1.854886e+00    1.072804e+01   2.888638e-02
  1.858526e+00    1.067297e+01   2.880872e-02
  1.862165e+00    1.049321e+01   2.856717e-02
  1.865805e+00    1.034782e+01   2.836636e-02
  1.869445e+00    1.035697e+01   2.837899e-02
  1.873085e+00    1.026142e+01   2.824607e-02
  1.876724e+00    1.028033e+01   2.826839e-02
  1.880364e+00    1.009633e+01   2.801327e-02
  1.884004e+00    9.945304e+00   2.780217e-02
  1.887643e+00    9.917389e+00   2.776058e-02
  1.891283e+00    9.866116e+00   2.768672e-02
  1.894923e+00    9.829137e+00   2.763167e-02
  1.898563e+00    9.805372e+00   2.759493e-02
  1.902202e+00    9.702036e+00   2.744779e-02
  1.905842e+00    9.577549e+00   2.726884e-02
  1.909482e+00    9.600950e+00   2.729973e-02
  1.913122e+00    9.494048e+00   2.714273e-02
  1.916761e+00    9.428690e+00   2.704535e-02
  1.920401e+00    9.445445e+00   2.707046e-02
  1.924041e+00    9.363710e+00   2.694982e-02
  1.927680e+00    9.236270e+00   2.676436e-02
  1.931320e+00    9.221110e+00   2.673739e-02
  1.934960e+00    9.271484e+00   2.680544e-02
  1.938600e+00    9.153555e+00   2.663109e-02
  1.942239e+00    9.118855e+00   2.657753e-02
  1.945879e+00    9.124238e+00   2.658078e-02
  1.949519e+00    9.126978e+00   2.658501e-02
  1.953159e+00    9.099060e+00   2.654184e-02
  1.956798e+00    9.092996e+00   2.652741e-02
  1.960438e+00    9.079121e+00   2.650308e-02
  1.964078e+00    9.049909e+00   2.645682e-02
  1.967717e+00    8.945168e+00   2.629830e-02
  1.971357e+00    8.914766e+00   2.625075e-02
  1.974997e+00    8.899129e+00   2.622371e-02
  1.978637e+00    8.906246e+00   2.622938e-02
  1.982276e+00    8.914035e+00   2.623551e-02
  1.985916e+00    8.885630e+00   2.619029e-02
  1.989556e+00    8.846983e+00   2.612761e-02
  1.993196e+00    8.810205e+00   2.607088e-02
  1.996835e+00    8.800778e+00   2.605377e-02
  2.000475e+00    8.846211e+00   2.611610e-02
  2.004115e+00    8.857849e+00   2.612875e-02
  2.007754e+00    8.774265e+00   2.599975e-02
  2.011394e+00    8.769454e+00   2.598764e-02
  2.015034e+00    8.772200e+00   2.598703e-02
  2.018674e+00    8.772971e+00   2.598569e-02
  2.022313e+00    8.685294e+00   2.585001e-02
  2.025953e+00    8.722887e+00   2.590197e-02
  2.029593e+00    8.748319e+00   2.593510e-02
  2.033233e+00    8.810060e+00   2.602193e-02
  2.036872e+00    8.706210e+00   2.587410e-02
  2.040512e+00    8.778908e+00   2.599518e-02
  2.044152e+00    8.808715e+00   2.606382e-02
  2.047791e+00    8.786215e+00   2.604695e-02
  2.051431e+00    8.722275e+00   2.597197e-02
  2.055071e+00    8.742395e+00   2.602598e-02
  2.058711e+00    8.654921e+00   2.590790e-02
  2.062350e+00    8.658322e+00   2.593434e-02
  2.065990e+00    8.708421e+00   2.602907e-02
  2.069630e+00    8.768303e+00   2.613076e-02
  2.073270e+00    8.806973e+00   2.620819e-02
  2.076909e+00    8.840431e+00   2.626864e-02
  2.080549e+00    8.902478e+00   2.637646e-02
  2.084189e+00    9.009632e+00   2.655435e-02
  2.087828e+00    9.111287e+00   2.671712e-02
  2.091468e+00    9.099291e+00   2.671718e-02
  2.095108e+00    9.149437e+00   2.681018e-02
  2.098748e+00    9.077147e+00   2.671439e-02
  2.102387e+00    9.091094e+00   2.675109e-02
  2.106027e+00    9.064655e+00   2.673141e-02
  2.109667e+00    9.081085e+00   2.676521e-02
  2.113307e+00    8.956075e+00   2.659648e-02
  2.116946e+00    8.966386e+00   2.662992e-02
  2.120586e+00    8.998571e+00   2.668783e-02
  2.124226e+00    8.956410e+00   2.663331e-02
  2.127866e+00    8.950796e+00   2.663933e-02
  2.131505e+00    8.818817e+00   2.645363e-02
  2.135145e+00    8.787042e+00   2.641753e-02
  2.138785e+00    8.759830e+00   2.639289e-02
  2.142424e+00    8.729807e+00   2.635888e-02
  2.146064e+00    8.636196e+00   2.622679e-02
  2.149704e+00    8.642499e+00   2.625054e-02
  2.153344e+00    8.592434e+00   2.618653e-02
  2.156983e+00    8.576836e+00   2.617121e-02
  2.160623e+00    8.581322e+00   2.619075e-02
  2.164263e+00    8.561191e+00   2.617256e-02
  2.167903e+00    8.554084e+00   2.616809e-02
  2.171542e+00    8.631746e+00   2.629802e-02
  2.175182e+00    8.555618e+00   2.618788e-02
  2.178822e+00    8.551591e+00   2.618638e-02
  2.182461e+00    8.533608e+00   2.617076e-02
  2.186101e+00    8.512712e+00   2.614993e-02
  2.189741e+00    8.515314e+00   2.616432e-02
  2.193381e+00    8.578980e+00   2.626693e-02
  2.197020e+00    8.540078e+00   2.622015e-02
  2.200660e+00    8.519646e+00   2.620048e-02
  2.204300e+00    8.503558e+00   2.617952e-02
  2.207940e+00    8.446945e+00   2.610192e-02
  2.211579e+00    8.537783e+00   2.625391e-02
  2.215219e+00    8.461273e+00   2.614387e-02
  2.218859e+00    8.446189e+00   2.612552e-02
  2.222498e+00    8.511359e+00   2.623754e-02
  2.226138e+00    8.468874e+00   2.617897e-02
  2.229778e+00    8.430613e+00   2.612013e-02
  2.233418e+00    8.398722e+00   2.607808e-02
  2.237057e+00    8.414163e+00   2.611087e-02
  2.240697e+00    8.476082e+00   2.621805e-02
  2.244337e+00    8.510060e+00   2.627387e-02
  2.247977e+00    8.452466e+00   2.619239e-02
  2.251616e+00    8.474595e+00   2.623522e-02
  2.255256e+00    8.428591e+00   2.617126e-02
  2.258896e+00    8.447921e+00   2.620433e-02
  2.262535e+00    8.551498e+00   2.637307e-02
  2.266175e+00    8.412189e+00   2.616619e-02
  2.269815e+00    8.408782e+00   2.616598e-02
  2.273455e+00    8.327174e+00   2.604383e-02
  2.277094e+00    8.406485e+00   2.617657e-02
  2.280734e+00    8.436975e+00   2.623083e-02
  2.284374e+00    8.435524e+00   2.622660e-02
  2.288014e+00    8.453723e+00   2.625906e-02
  2.291653e+00    8.428028e+00   2.622696e-02
  2.295293e+00    8.429634e+00   2.623660e-02
  2.298933e+00    8.407056e+00   2.620374e-02
  2.302572e+00    8.485781e+00   2.633338e-02
  2.306212e+00    8.492374e+00   2.635083e-02
  2.309852e+00    8.501073e+00   2.637117e-02
  2.313492e+00    8.566837e+00   2.647258e-02
  2.317131e+00    8.482191e+00   2.634799e-02
  2.320771e+00    8.427238e+00   2.626942e-02
  2.324411e+00    8.414835e+00   2.625731e-02
  2.328051e+00    8.444542e+00   2.630437e-02
  2.331690e+00    8.450945e+00   2.631910e-02
  2.335330e+00    8.452835e+00   2.632862e-02
  2.338970e+00    8.428525e+00   2.629717e-02
  2.342609e+00    8.516569e+00   2.642892e-02
  2.346249e+00    8.487372e+00   2.638929e-02
  2.349889e+00    8.467898e+00   2.636267e-02
  2.353529e+00    8.466372e+00   2.636553e-02
  2.357168e+00    8.443088e+00   2.633111e-02
  2.360808e+00    8.488376e+00   2.640573e-02
  2.364448e+00    8.502530e+00   2.643283e-02
  2.368088e+00    8.455937e+00   2.636549e-02
  2.371727e+00    8.504800e+00   2.644204e-02
  2.375367e+00    8.478449e+00   2.640341e-02
  2.379007e+00    8.411404e+00   2.630392e-02
  2.382646e+00    8.439445e+00   2.635263e-02
  2.386286e+00    8.496768e+00   2.644421e-02
  2.389926e+00    8.497997e+00   2.644746e-02
  2.393566e+00    8.558764e+00   2.654686e-02
  2.397205e+00    8.482180e+00   2.643364e-02
  2.400845e+00    8.461266e+00   2.640089e-02
  2.404485e+00    8.509409e+00   2.647115e-02
  2.408125e+00    8.526073e+00   2.650284e-02
  2.411764e+00    8.572968e+00   2.658004e-02
  2.415404e+00    8.486165e+00   2.644891e-02
  2.419044e+00    8.536167e+00   2.652522e-02
  2.422683e+00    8.603991e+00   2.663379e-02
  2.426323e+00    8.587281e+00   2.661238e-02
  2.429963e+00    8.569805e+00   2.658967e-02
  2.433603e+00    8.490373e+00   2.646434e-02
  2.437242e+00    8.582941e+00   2.661091e-02
  2.440882e+00    8.592661e+00   2.663089e-02
  2.444522e+00    8.603396e+00   2.665070e-02
  2.448162e+00    8.553870e+00   2.657866e-02
  2.451801e+00    8.671862e+00   2.677724e-02
  2.455441e+00    8.645998e+00   2.675623e-02
  2.459081e+00    8.669499e+00   2.681231e-02
  2.462720e+00    8.726339e+00   2.691974e-02
  2.466360e+00    8.771397e+00   2.701109e-02
  2.470000e+00    8.722821e+00   2.696994e-02
  2.473640e+00    8.698555e+00   2.696560e-02
  2.477279e+00    8.751900e+00   2.708228e-02
  2.480919e+00    8.747079e+00   2.710854e-02
  2.484559e+00    8.777994e+00   2.718952e-02
  2.488199e+00    8.889704e+00   2.739395e-02
  2.491838e+00    8.910325e+00   2.745911e-02
  2.495478e+00    8.980504e+00   2.759906e-02
  2.499118e+00    8.982325e+00   2.763335e-02
  2.502757e+00    9.095341e+00   2.783695e-02
  2.506397e+00    9.276509e+00   2.814560e-02
  2.510037e+00    9.438045e+00   2.842237e-02
  2.513677e+00    9.637351e+00   2.875334e-02
  2.517316e+00    9.795178e+00   2.901810e-02
  2.520956e+00    1.003314e+01   2.940052e-02
  2.524596e+00    1.022318e+01   2.971097e-02
  2.528236e+00    1.039338e+01   2.998787e-02
  2.531875e+00    1.042650e+01   3.006770e-02
  2.535515e+00    1.036676e+01   3.001367e-02
  2.539155e+00    1.035564e+01   3.002768e-02
  2.542795e+00    1.016047e+01   2.977183e-02
  2.546434e+00    9.870452e+00   2.937404e-02
  2.550074e+00    9.691106e+00   2.913477e-02
  2.553714e+00    9.574996e+00   2.898708e-02
  2.557353e+00    9.471292e+00   2.885812e-02
  2.560993e+00    9.278622e+00   2.859311e-02
  2.564633e+00    9.120502e+00   2.837461e-02
  2.568273e+00    9.105767e+00   2.837791e-02
  2.571912e+00    9.116667e+00   2.842248e-02
  2.575552e+00    9.084989e+00   2.839882e-02
  2.579192e+00    9.045555e+00   2.836283e-02
  2.582832e+00    9.067099e+00   2.842186e-02
  2.586471e+00    9.049994e+00   2.842231e-02
  2.590111e+00    9.074060e+00   2.849888e-02
  2.593751e+00    9.079141e+00   2.860512e-02
  2.597390e+00    9.079776e+00   2.870349e-02
  2.601030e+00    9.117671e+00   2.885647e-02
  2.604670e+00    9.137520e+00   2.897532e-02
  2.608310e+00    9.008837e+00   2.885423e-02
  2.611949e+00    9.142248e+00   2.914919e-02
  2.615589e+00    9.079699e+00   2.912659e-02
  2.619229e+00    9.090658e+00   2.922121e-02
  2.622869e+00    9.122852e+00   2.934414e-02
  2.626508e+00    9.193230e+00   2.953024e-02
  2.630148e+00    9.332017e+00   2.982346e-02
  2.633788e+00    9.268911e+00   2.979223e-02
  2.637427e+00    9.290468e+00   2.989185e-02
  2.641067e+00    9.312736e+00   2.999159e-02
  2.644707e+00    9.343563e+00   3.010608e-02
  2.648347e+00    9.291558e+00   3.008482e-02
  2.651986e+00    9.301584e+00   3.016378e-02
  2.655626e+00    9.277812e+00   3.022006e-02
  2.659266e+00    9.304887e+00   3.039697e-02
  2.662906e+00    9.322254e+00   3.055345e-02
  2.666545e+00    9.473963e+00   3.092622e-02
  2.670185e+00    9.531471e+00   3.115215e-02
  2.673825e+00    9.478081e+00   3.119723e-02
  2.677464e+00    9.426745e+00   3.123096e-02
  2.681104e+00    9.443755e+00   3.137656e-02
  2.684744e+00    9.454302e+00   3.150880e-02
  2.688384e+00    9.470356e+00   3.164767e-02
  2.692023e+00    9.554969e+00   3.190916e-02
  2.695663e+00    9.498724e+00   3.193182e-02
  2.699303e+00    9.454312e+00   3.196516e-02
  2.702943e+00    9.555297e+00   3.224121e-02
  2.706582e+00    9.530719e+00   3.230455e-02
  2.710222e+00    9.493746e+00   3.234713e-02
  2.713862e+00    9.454469e+00   3.238270e-02
  2.717501e+00    9.561463e+00   3.268092e-02
  2.721141e+00    9.512426e+00   3.269771e-02
  2.724781e+00    9.612006e+00   3.297113e-02
  2.728421e+00    9.696700e+00   3.321594e-02
  2.732060e+00    9.826392e+00   3.353727e-02
  2.735700e+00    9.902788e+00   3.376615e-02
  2.739340e+00    1.006039e+01   3.413333e-02
  2.742980e+00    1.023747e+01   3.454228e-02
  2.746619e+00    1.034171e+01   3.482221e-02
  2.750259e+00    1.036726e+01   3.496474e-02
  2.753899e+00    1.047235e+01   3.523960e-02
  2.757538e+00    1.057839e+01   3.551564e-02
  2.761178e+00    1.066716e+01   3.576513e-02
  2.764818e+00    1.075327e+01   3.600660e-02
  2.768458e+00    1.083720e+01   3.624433e-02
  2.772097e+00    1.100959e+01   3.663666e-02
  2.775737e+00    1.094187e+01   3.662972e-02
  2.779377e+00    1.098579e+01   3.680222e-02
  2.783017e+00    1.100477e+01   3.693042e-02
  2.786656e+00    1.102501e+01   3.706046e-02
  2.790296e+00    1.109671e+01   3.727724e-02
  2.793936e+00    1.100796e+01   3.722617e-02
  2.797575e+00    1.103711e+01   3.737049e-02
  2.801215e+00    1.090594e+01   3.724298e-02
  2.804855e+00    1.098927e+01   3.748898e-02
  2.808495e+00    1.098354e+01   3.758073e-02
  2.812134e+00    1.091832e+01   3.756218e-02
  2.815774e+00    1.086919e+01   3.757286e-02
  2.819414e+00    1.075959e+01   3.747652e-02
  2.823054e+00    1.062605e+01   3.733504e-02
  2.826693e+00    1.061486e+01   3.740785e-02
  2.830333e+00    1.070190e+01   3.765292e-02
  2.833973e+00    1.059171e+01   3.754930e-02
  2.837612e+00    1.052226e+01   3.752052e-02
  2.841252e+00    1.053103e+01   3.764059e-02
  2.844892e+00    1.055884e+01   3.778249e-02
  2.848532e+00    1.052067e+01   3.780505e-02
  2.852171e+00    1.059357e+01   3.802827e-02
  2.855811e+00    1.050580e+01   3.796031e-02
  2.859451e+00    1.045895e+01   3.796721e-02
  2.863091e+00    1.058219e+01   3.828177e-02
  2.866730e+00    1.069223e+01   3.857037e-02
  2.870370e+00    1.058628e+01   3.847030e-02
  2.874010e+00    1.058017e+01   3.854966e-02
  2.877649e+00    1.066932e+01   3.881351e-02
  2.881289e+00    1.073859e+01   3.907857e-02
  2.884929e+00    1.072773e+01   3.922780e-02
  2.888569e+00    1.081686e+01   3.956167e-02
  2.892208e+00    1.080031e+01   4.015142e-02
  2.895848e+00    1.086731e+01   4.137989e-02
  2.899488e+00    1.087900e+01   4.210429e-02
  2.903128e+00    1.088485e+01   4.269453e-02
  2.906767e+00    1.074700e+01   4.297103e-02
  2.910407e+00    1.071703e+01   4.341048e-02
  2.914047e+00    1.068841e+01   4.381587e-02
  2.917686e+00    1.065189e+01   4.420939e-02
  2.921326e+00    1.058369e+01   4.452362e-02
  2.924966e+00    1.039474e+01   4.456343e-02
  2.928606e+00    1.043664e+01   4.506227e-02
  2.932245e+00    1.048836e+01   4.560682e-02
  2.935885e+00    1.042487e+01   4.589906e-02
  2.939525e+00    1.053763e+01   4.657607e-02
  2.943165e+00    1.038967e+01   4.666534e-02
  2.946804e+00    1.055995e+01   4.744632e-02
  2.950444e+00    1.062692e+01   4.802106e-02
  2.954084e+00    1.070067e+01   4.861725e-02
  2.957724e+00    1.075028e+01   4.916113e-02
  2.961363e+00    1.065650e+01   4.937723e-02
  2.965003e+00    1.090687e+01   5.039491e-02
  2.968643e+00    1.080468e+01   5.059104e-02
  2.972282e+00    1.088311e+01   5.119834e-02
  2.975922e+00    1.091981e+01   5.172994e-02
  2.979562e+00    1.088714e+01   5.210247e-02
  2.983202e+00    1.096473e+01   5.274731e-02
  2.986841e+00    1.079287e+01   5.282509e-02
  2.990481e+00    1.097029e+01   5.756399e-02
  2.994121e+00    1.100134e+01   6.068353e-02
  2.997761e+00    1.066935e+01   6.661814e-02
  3.001400e+00    1.067078e+01   7.541003e-02
  3.005040e+00    1.058192e+01   8.119991e-02
  3.008680e+00    1.060659e+01   8.797159e-02
  3.012319e+00    1.048439e+01   9.495350e-02
  3.015959e+00    1.070543e+01   1.047506e-01
  3.019599e+00    1.047796e+01   1.137913e-01
  3.023239e+00    1.019671e+01   1.253582e-01
  3.026878e+00    1.019374e+01   1.424758e-01
  3.030518e+00    1.054414e+01   1.721831e-01
  3.034158e+00    1.087366e+01   2.247468e-01
  3.037798e+00    1.088420e+01   3.463771e-01
  3.041437e+00    1.019416e+01   1.759805e+00
  3.045077e+00    0.000000e+00   0.000000e+00
  3.048717e+00    0.000000e+00   0.000000e+00
  3.052356e+00    0.000000e+00   0.000000e+00
  3.055996e+00    0.000000e+00   0.000000e+00
  3.059636e+00    0.000000e+00   0.000000e+00
  3.063276e+00    0.000000e+00   0.000000e+00
  3.066915e+00    0.000000e+00   0.000000e+00
  3.070555e+00    0.000000e+00   0.000000e+00
  3.074195e+00    0.000000e+00   0.000000e+00
  3.077835e+00    0.000000e+00   0.000000e+00
  3.081474e+00    0.000000e+00   0.000000e+00
  3.085114e+00    0.000000e+00   0.000000e+00
  3.088754e+00    0.000000e+00   0.000000e+00
  3.092393e+00    0.000000e+00   0.000000e+00
  3.096033e+00    0.000000e+00   0.000000e+00
  3.099673e+00    0.000000e+00   0.000000e+00
  3.103313e+00    0.000000e+00   0.000000e+00
  3.106952e+00    0.000000e+00   0.000000e+00
  3.110592e+00    0.000000e+00   0.000000e+00
  3.114232e+00    0.000000e+00   0.000000e+00
  3.117872e+00    0.000000e+00   0.000000e+00
  3.121511e+00    0.000000e+00   0.000000e+00
  3.125151e+00    0.000000e+00   0.000000e+00
  3.128791e+00    0.000000e+00   0.000000e+00
  3.132430e+00    0.000000e+00   0.000000e+00
  3.136070e+00    0.000000e+00   0.000000e+00
  3.139710e+00    0.000000e+00   0.000000e+00
  3.143350e+00    0.000000e+00   0.000000e+00
  3.146989e+00    0.000000e+00   0.000000e+00
  3.150629e+00    0.000000e+00   0.000000e+00
  3.154269e+00    0.000000e+00   0.000000e+00
  3.157909e+00    0.000000e+00   0.000000e+00
  3.161548e+00    0.000000e+00   0.000000e+00
  3.165188e+00    0.000000e+00   0.000000e+00
  3.168828e+00    0.000000e+00   0.000000e+00
  3.172467e+00    0.000000e+00   0.000000e+00
  3.176107e+00    0.000000e+00   0.000000e+00
  3.179747e+00    0.000000e+00   0.000000e+00
  3.183387e+00    0.000000e+00   0.000000e+00
  3.187026e+00    0.000000e+00   0.000000e+00
  3.190666e+00    0.000000e+00   0.000000e+00
  3.194306e+00    0.000000e+00   0.000000e+00
  3.197946e+00    0.000000e+00   0.000000e+00
  3.201585e+00    0.000000e+00   0.000000e+00
  3.205225e+00    0.000000e+00   0.000000e+00
  3.208865e+00    0.000000e+00   0.000000e+00
  3.212504e+00    0.000000e+00   0.000000e+00
  3.216144e+00    0.000000e+00   0.000000e+00
  3.219784e+00    0.000000e+00   0.000000e+00
  3.223424e+00    0.000000e+00   0.000000e+00
  3.227063e+00    0.000000e+00   0.000000e+00
  3.230703e+00    0.000000e+00   0.000000e+00
  3.234343e+00    0.000000e+00   0.000000e+00
  3.237983e+00    0.000000e+00   0.000000e+00
  3.241622e+00    0.000000e+00   0.000000e+00
  3.245262e+00    0.000000e+00   0.000000e+00
  3.248902e+00    0.000000e+00   0.000000e+00
  3.252541e+00    0.000000e+00   0.000000e+00
  3.256181e+00    0.000000e+00   0.000000e+00
  3.259821e+00    0.000000e+00   0.000000e+00
  3.263461e+00    0.000000e+00   0.000000e+00
  3.267100e+00    0.000000e+00   0.000000e+00
  3.270740e+00    0.000000e+00   0.000000e+00
  3.274380e+00    0.000000e+00   0.000000e+00
  3.278020e+00    0.000000e+00   0.000000e+00
  3.281659e+00    0.000000e+00   0.000000e+00
  3.285299e+00    0.000000e+00   0.000000e+00
  3.288939e+00    0.000000e+00   0.000000e+00
  3.292578e+00    0.000000e+00   0.000000e+00
  3.296218e+00    0.000000e+00   0.000000e+00
  3.299858e+00    0.000000e+00   0.000000e+00
  3.303498e+00    0.000000e+00   0.000000e+00
  3.307137e+00    0.000000e+00   0.000000e+00
  3.310777e+00    0.000000e+00   0.000000e+00
  3.314417e+00    0.000000e+00   0.000000e+00
  3.318057e+00    0.000000e+00   0.000000e+00
  3.321696e+00    0.000000e+00   0.000000e+00
  3.325336e+00    0.000000e+00   0.000000e+00
  3.328976e+00    0.000000e+00   0.000000e+00
  3.332615e+00    0.000000e+00   0.000000e+00
  3.336255e+00    0.000000e+00   0.000000e+00
  3.339895e+00    0.000000e+00   0.000000e+00
  3.343535e+00    0.000000e+00   0.000000e+00
  3.347174e+00    0.000000e+00   0.000000e+00
  3.350814e+00    0.000000e+00   0.000000e+00
  3.354454e+00    0.000000e+00   0.000000e+00
  3.358094e+00    0.000000e+00   0.000000e+00
  3.361733e+00    0.000000e+00   0.000000e+00
  3.365373e+00    0.000000e+00   0.000000e+00
  3.369013e+00    0.000000e+00   0.000000e+00
  3.372652e+00    0.000000e+00   0.000000e+00
  3.376292e+00    0.000000e+00   0.000000e+00
  3.379932e+00    0.000000e+00   0.000000e+00
  3.383572e+00    0.000000e+00   0.000000e+00
  3.387211e+00    0.000000e+00   0.000000e+00
  3.390851e+00    0.000000e+00   0.000000e+00
  3.394491e+00    0.000000e+00   0.000000e+00
  3.398131e+00    0.000000e+00   0.000000e+00
  3.401770e+00    0.000000e+00   0.000000e+00
  3.405410e+00    0.000000e+00   0.000000e+00
  3.409050e+00    0.000000e+00   0.000000e+00
  3.412690e+00    0.000000e+00   0.000000e+00
  3.416329e+00    0.000000e+00   0.000000e+00
  3.419969e+00    0.000000e+00   0.000000e+00
  3.423609e+00    0.000000e+00   0.000000e+00
  3.427248e+00    0.000000e+00   0.000000e+00
  3.430888e+00    0.000000e+00   0.000000e+00
  3.434528e+00    0.000000e+00   0.000000e+00
  3.438168e+00    0.000000e+00   0.000000e+00
  3.441807e+00    0.000000e+00   0.000000e+00
  3.445447e+00    0.000000e+00   0.000000e+00
  3.449087e+00    0.000000e+00   0.000000e+00
  3.452727e+00    0.000000e+00   0.000000e+00
  3.456366e+00    0.000000e+00   0.000000e+00
  3.460006e+00    0.000000e+00   0.000000e+00
  3.463646e+00    0.000000e+00   0.000000e+00
  3.467285e+00    0.000000e+00   0.000000e+00
  3.470925e+00    0.000000e+00   0.000000e+00
  3.474565e+00    0.000000e+00   0.000000e+00
  3.478205e+00    0.000000e+00   0.000000e+00
  3.481844e+00    0.000000e+00   0.000000e+00
  3.485484e+00    0.000000e+00   0.000000e+00
  3.489124e+00    0.000000e+00   0.000000e+00
  3.492764e+00    0.000000e+00   0.000000e+00
  3.496403e+00    0.000000e+00   0.000000e+00
  3.500043e+00    0.000000e+00   0.000000e+00
  3.503683e+00    0.000000e+00   0.000000e+00
  3.507322e+00    0.000000e+00   0.000000e+00
  3.510962e+00    0.000000e+00   0.000000e+00
  3.514602e+00    0.000000e+00   0.000000e+00
  3.518242e+00    0.000000e+00   0.000000e+00
  3.521881e+00    0.000000e+00   0.000000e+00
  3.525521e+00    0.000000e+00   0.000000e+00
  3.529161e+00    0.000000e+00   0.000000e+00
  3.532801e+00    0.000000e+00   0.000000e+00
  3.536440e+00    0.000000e+00   0.000000e+00
  3.540080e+00    0.000000e+00   0.000000e+00
  3.543720e+00    0.000000e+00   0.000000e+00
  3.547359e+00    0.000000e+00   0.000000e+00
  3.550999e+00    0.000000e+00   0.000000e+00
  3.554639e+00    0.000000e+00   0.000000e+00
  3.558279e+00    0.000000e+00   0.000000e+00
  3.561918e+00    0.000000e+00   0.000000e+00
  3.565558e+00    0.000000e+00   0.000000e+00
  3.569198e+00    0.000000e+00   0.000000e+00
  3.572838e+00    0.000000e+00   0.000000e+00
  3.576477e+00    0.000000e+00   0.000000e+00
  3.580117e+00    0.000000e+00   0.000000e+00
  3.583757e+00    0.000000e+00   0.000000e+00
  3.587396e+00    0.000000e+00   0.000000e+00
  3.591036e+00    0.000000e+00   0.000000e+00
  3.594676e+00    0.000000e+00   0.000000e+00
  3.598316e+00    0.000000e+00   0.000000e+00
  3.601955e+00    0.000000e+00   0.000000e+00
  3.605595e+00    0.000000e+00   0.000000e+00
  3.609235e+00    0.000000e+00   0.000000e+00
  3.612875e+00    0.000000e+00   0.000000e+00
  3.616514e+00    0.000000e+00   0.000000e+00
  3.620154e+00    0.000000e+00   0.000000e+00
  3.623794e+00    0.000000e+00   0.000000e+00
  3.627433e+00    0.000000e+00   0.000000e+00
  3.631073e+00    0.000000e+00   0.000000e+00
  3.634713e+00    0.000000e+00   0.000000e+00
  3.638353e+00    0.000000e+00   0.000000e+00
  3.641992e+00    0.000000e+00   0.000000e+00
  3.645632e+00    0.000000e+00   0.000000e+00
  3.649272e+00    0.000000e+00   0.000000e+00
  3.652912e+00    0.000000e+00   0.000000e+00
  3.656551e+00    0.000000e+00   0.000000e+00
  3.660191e+00    0.000000e+00   0.000000e+00
  3.663831e+00    0.000000e+00   0.000000e+00
