# == pyFAI calibration ==
# SplineFile: None
# PixelSize: 1.000e-04, 1.000e-04 m
# PONI: 1.637e-01, 1.015e-01 m
# Distance Sample to Detector: 0.711290147293 m
# Rotations: -0.226893 0.000000 0.000000 rad
# 
# == Fit2d calibration ==
# Distance Sample-beamCenter: 730.000 mm
# Center: x=2657.000, y=1637.000 pix
# Tilt: 13.000 deg  TiltPlanRot: 0.000 deg
# 
# Wavelength: 7.09e-10
# Polarization factor: None
# Normalization factor: None
# --> OT-2015-07-01-039-02-3600s.rgr
#       q_nm^-1              I           sigma 
  2.759751e-02    1.177087e+03   5.394038e+00
  3.134088e-02    9.389821e+02   3.056335e+00
  3.508424e-02    9.432407e+02   2.262019e+00
  3.882760e-02    7.797450e+02   1.640085e+00
  4.257096e-02    5.748449e+02   1.247849e+00
  4.631432e-02    4.346944e+02   9.862616e-01
  5.005769e-02    3.328156e+02   7.976714e-01
  5.380105e-02    2.576255e+02   6.147474e-01
  5.754441e-02    2.070943e+02   5.075284e-01
  6.128777e-02    1.687345e+02   4.337621e-01
  6.503114e-02    1.357797e+02   3.744162e-01
  6.877450e-02    1.105458e+02   3.280461e-01
  7.251786e-02    9.264535e+01   2.917011e-01
  7.626122e-02    7.864247e+01   2.608170e-01
  8.000458e-02    6.716512e+01   2.343433e-01
  8.374795e-02    5.810573e+01   2.123915e-01
  8.749131e-02    5.053443e+01   1.932095e-01
  9.123467e-02    4.439333e+01   1.767924e-01
  9.497803e-02    3.969543e+01   1.633766e-01
  9.872140e-02    3.607851e+01   1.524581e-01
  1.024648e-01    3.326958e+01   1.434034e-01
  1.062081e-01    3.100791e+01   1.356735e-01
  1.099515e-01    2.924935e+01   1.292371e-01
  1.136948e-01    2.758666e+01   1.232779e-01
  1.174382e-01    2.563199e+01   1.167058e-01
  1.211816e-01    2.421729e+01   1.114873e-01
  1.249249e-01    2.310849e+01   1.070957e-01
  1.286683e-01    2.232936e+01   1.036410e-01
  1.324117e-01    2.118977e+01   9.938693e-02
  1.361550e-01    2.064315e+01   9.660227e-02
  1.398984e-01    1.989363e+01   9.343440e-02
  1.436417e-01    1.954125e+01   9.131662e-02
  1.473851e-01    1.882822e+01   8.841003e-02
  1.511285e-01    1.868642e+01   8.688947e-02
  1.548718e-01    1.811315e+01   8.441888e-02
  1.586152e-01    1.800119e+01   8.309904e-02
  1.623586e-01    1.779878e+01   8.159917e-02
  1.661019e-01    1.765426e+01   8.027281e-02
  1.698453e-01    1.717926e+01   7.824967e-02
  1.735886e-01    1.699468e+01   7.695051e-02
  1.773320e-01    1.704044e+01   7.618323e-02
  1.810754e-01    1.694561e+01   7.512587e-02
  1.848187e-01    1.676271e+01   7.389973e-02
  1.885621e-01    1.632194e+01   7.217529e-02
  1.923055e-01    1.649127e+01   7.178879e-02
  1.960488e-01    1.619399e+01   7.040307e-02
  1.997922e-01    1.583605e+01   6.892278e-02
  2.035355e-01    1.592947e+01   6.846759e-02
  2.072789e-01    1.566191e+01   6.724165e-02
  2.110223e-01    1.546774e+01   6.619227e-02
  2.147656e-01    1.530002e+01   6.521556e-02
  2.185090e-01    1.538964e+01   6.482411e-02
  2.222523e-01    1.532431e+01   6.411526e-02
  2.259957e-01    1.539484e+01   6.369540e-02
  2.297391e-01    1.552007e+01   6.339808e-02
  2.334824e-01    1.542513e+01   6.268151e-02
  2.372258e-01    1.510519e+01   6.150914e-02
  2.409692e-01    1.504225e+01   6.087674e-02
  2.447125e-01    1.498904e+01   6.027478e-02
  2.484559e-01    1.510075e+01   6.002019e-02
  2.521992e-01    1.501291e+01   5.937968e-02
  2.559426e-01    1.517115e+01   5.923600e-02
  2.596860e-01    1.480385e+01   5.806740e-02
  2.634293e-01    1.472044e+01   5.748044e-02
  2.671727e-01    1.490231e+01   5.740522e-02
  2.709161e-01    1.486172e+01   5.690900e-02
  2.746594e-01    1.477316e+01   5.633141e-02
  2.784028e-01    1.481888e+01   5.602416e-02
  2.821461e-01    1.493445e+01   5.584769e-02
  2.858895e-01    1.492095e+01   5.543314e-02
  2.896329e-01    1.475118e+01   5.474424e-02
  2.933762e-01    1.469549e+01   5.428429e-02
  2.971196e-01    1.459568e+01   5.374887e-02
  3.008630e-01    1.474800e+01   5.366939e-02
  3.046063e-01    1.475506e+01   5.333337e-02
  3.083497e-01    1.473294e+01   5.296547e-02
  3.120930e-01    1.457816e+01   5.235619e-02
  3.158364e-01    1.455664e+01   5.198918e-02
  3.195798e-01    1.460531e+01   5.175597e-02
  3.233231e-01    1.466602e+01   5.154787e-02
  3.270665e-01    1.473026e+01   5.135565e-02
  3.308099e-01    1.465120e+01   5.091161e-02
  3.345532e-01    1.487571e+01   5.099647e-02
  3.382966e-01    1.486627e+01   5.069385e-02
  3.420399e-01    1.490215e+01   5.046677e-02
  3.457833e-01    1.473051e+01   4.989009e-02
  3.495267e-01    1.479182e+01   4.971240e-02
  3.532700e-01    1.504037e+01   4.984756e-02
  3.570134e-01    1.493804e+01   4.941571e-02
  3.607567e-01    1.513325e+01   4.946172e-02
  3.645001e-01    1.528698e+01   4.944733e-02
  3.682435e-01    1.541143e+01   4.937797e-02
  3.719868e-01    1.554866e+01   4.934554e-02
  3.757302e-01    1.570207e+01   4.933199e-02
  3.794736e-01    1.593797e+01   4.944341e-02
  3.832169e-01    1.608702e+01   4.941979e-02
  3.869603e-01    1.630356e+01   4.950071e-02
  3.907036e-01    1.647080e+01   4.950713e-02
  3.944470e-01    1.661174e+01   4.947578e-02
  3.981904e-01    1.657965e+01   4.919463e-02
  4.019337e-01    1.658573e+01   4.897296e-02
  4.056771e-01    1.661208e+01   4.877313e-02
  4.094205e-01    1.637741e+01   4.818956e-02
  4.131638e-01    1.612667e+01   4.759708e-02
  4.169072e-01    1.575605e+01   4.682853e-02
  4.206505e-01    1.563204e+01   4.642636e-02
  4.243939e-01    1.538984e+01   4.585363e-02
  4.281373e-01    1.529487e+01   4.550053e-02
  4.318806e-01    1.507001e+01   4.495530e-02
  4.356240e-01    1.480794e+01   4.435794e-02
  4.393674e-01    1.474171e+01   4.405884e-02
  4.431107e-01    1.463217e+01   4.369285e-02
  4.468541e-01    1.430287e+01   4.301655e-02
  4.505974e-01    1.420173e+01   4.267817e-02
  4.543408e-01    1.411538e+01   4.236373e-02
  4.580842e-01    1.398495e+01   4.198757e-02
  4.618275e-01    1.396962e+01   4.178460e-02
  4.655709e-01    1.384053e+01   4.141354e-02
  4.693143e-01    1.380972e+01   4.119272e-02
  4.730576e-01    1.376669e+01   4.095572e-02
  4.768010e-01    1.362711e+01   4.058796e-02
  4.805443e-01    1.359830e+01   4.037273e-02
  4.842877e-01    1.349383e+01   4.004619e-02
  4.880311e-01    1.328981e+01   3.958988e-02
  4.917744e-01    1.331625e+01   3.946515e-02
  4.955178e-01    1.316928e+01   3.908988e-02
  4.992612e-01    1.319095e+01   3.896940e-02
  5.030045e-01    1.313394e+01   3.873094e-02
  5.067479e-01    1.310563e+01   3.853721e-02
  5.104912e-01    1.309208e+01   3.837487e-02
  5.142346e-01    1.286710e+01   3.789806e-02
  5.179780e-01    1.283829e+01   3.770751e-02
  5.217213e-01    1.290755e+01   3.766365e-02
  5.254647e-01    1.280697e+01   3.737263e-02
  5.292080e-01    1.279804e+01   3.721797e-02
  5.329514e-01    1.262055e+01   3.681944e-02
  5.366948e-01    1.261001e+01   3.667531e-02
  5.404381e-01    1.261969e+01   3.656239e-02
  5.441815e-01    1.257215e+01   3.636071e-02
  5.479249e-01    1.254334e+01   3.617781e-02
  5.516682e-01    1.237716e+01   3.581343e-02
  5.554116e-01    1.236662e+01   3.567032e-02
  5.591549e-01    1.232045e+01   3.546772e-02
  5.628983e-01    1.217526e+01   3.513432e-02
  5.666417e-01    1.221727e+01   3.508245e-02
  5.703850e-01    1.222644e+01   3.496729e-02
  5.741284e-01    1.218687e+01   3.478953e-02
  5.778718e-01    1.221103e+01   3.470390e-02
  5.816151e-01    1.212448e+01   3.446766e-02
  5.853585e-01    1.190258e+01   3.403964e-02
  5.891018e-01    1.196315e+01   3.400820e-02
  5.928452e-01    1.192718e+01   3.384003e-02
  5.965886e-01    1.190822e+01   3.370263e-02
  6.003319e-01    1.182013e+01   3.346764e-02
  6.040753e-01    1.181966e+01   3.335598e-02
  6.078187e-01    1.177144e+01   3.318188e-02
  6.115620e-01    1.180812e+01   3.313053e-02
  6.153054e-01    1.185019e+01   3.308156e-02
  6.190487e-01    1.185789e+01   3.298103e-02
  6.227921e-01    1.172428e+01   3.268772e-02
  6.265355e-01    1.165031e+01   3.248228e-02
  6.302788e-01    1.164010e+01   3.236203e-02
  6.340222e-01    1.162903e+01   3.224136e-02
  6.377656e-01    1.152434e+01   3.200059e-02
  6.415089e-01    1.157191e+01   3.197240e-02
  6.452523e-01    1.157130e+01   3.186836e-02
  6.489956e-01    1.160842e+01   3.181826e-02
  6.527390e-01    1.154603e+01   3.163933e-02
  6.564824e-01    1.152009e+01   3.151210e-02
  6.602257e-01    1.157399e+01   3.149064e-02
  6.639691e-01    1.146706e+01   3.124769e-02
  6.677124e-01    1.138891e+01   3.104245e-02
  6.714558e-01    1.139699e+01   3.096774e-02
  6.751992e-01    1.133317e+01   3.078601e-02
  6.789425e-01    1.137964e+01   3.075653e-02
  6.826859e-01    1.138653e+01   3.068224e-02
  6.864293e-01    1.131710e+01   3.049922e-02
  6.901726e-01    1.133014e+01   3.042751e-02
  6.939160e-01    1.134141e+01   3.034952e-02
  6.976593e-01    1.133151e+01   3.024962e-02
  7.014027e-01    1.124776e+01   3.005705e-02
  7.051461e-01    1.132974e+01   3.007891e-02
  7.088894e-01    1.132617e+01   2.999381e-02
  7.126328e-01    1.127036e+01   2.983538e-02
  7.163762e-01    1.125863e+01   2.973320e-02
  7.201195e-01    1.114576e+01   2.950333e-02
  7.238629e-01    1.116452e+01   2.944064e-02
  7.276062e-01    1.129974e+01   2.954211e-02
  7.313496e-01    1.126610e+01   2.942119e-02
  7.350930e-01    1.127489e+01   2.935192e-02
  7.388363e-01    1.131032e+01   2.931666e-02
  7.425797e-01    1.123817e+01   2.914556e-02
  7.463231e-01    1.124080e+01   2.907291e-02
  7.500664e-01    1.128432e+01   2.904398e-02
  7.538098e-01    1.128188e+01   2.897016e-02
  7.575531e-01    1.123044e+01   2.882906e-02
  7.612965e-01    1.121972e+01   2.873597e-02
  7.650399e-01    1.118920e+01   2.861723e-02
  7.687832e-01    1.129921e+01   2.867585e-02
  7.725266e-01    1.120013e+01   2.847857e-02
  7.762700e-01    1.116301e+01   2.835427e-02
  7.800133e-01    1.114429e+01   2.824850e-02
  7.837567e-01    1.117266e+01   2.820228e-02
  7.875000e-01    1.118851e+01   2.814932e-02
  7.912434e-01    1.124661e+01   2.815493e-02
  7.949868e-01    1.123222e+01   2.806142e-02
  7.987301e-01    1.122751e+01   2.797833e-02
  8.024735e-01    1.117287e+01   2.783978e-02
  8.062169e-01    1.111256e+01   2.770000e-02
  8.099602e-01    1.114223e+01   2.767832e-02
  8.137036e-01    1.122317e+01   2.771579e-02
  8.174469e-01    1.114860e+01   2.756226e-02
  8.211903e-01    1.102734e+01   2.735089e-02
  8.249337e-01    1.102938e+01   2.729843e-02
  8.286770e-01    1.112913e+01   2.735855e-02
  8.324204e-01    1.109208e+01   2.725832e-02
  8.361637e-01    1.113668e+01   2.726008e-02
  8.399071e-01    1.110299e+01   2.715900e-02
  8.436505e-01    1.103997e+01   2.702669e-02
  8.473938e-01    1.096725e+01   2.687890e-02
  8.511372e-01    1.096381e+01   2.681590e-02
  8.548806e-01    1.097534e+01   2.678934e-02
  8.586239e-01    1.094997e+01   2.710914e-02
  8.623673e-01    1.094172e+01   2.768437e-02
  8.661106e-01    1.093931e+01   2.804042e-02
  8.698540e-01    1.096645e+01   2.835444e-02
  8.735974e-01    1.085394e+01   2.844492e-02
  8.773407e-01    1.092509e+01   2.872709e-02
  8.810841e-01    1.082101e+01   2.875399e-02
  8.848275e-01    1.080084e+01   2.883098e-02
  8.885708e-01    1.081581e+01   2.890018e-02
  8.923142e-01    1.078632e+01   2.890029e-02
  8.960575e-01    1.076015e+01   2.889467e-02
  8.998009e-01    1.077962e+01   2.895659e-02
  9.035443e-01    1.073565e+01   2.892039e-02
  9.072876e-01    1.073585e+01   2.895227e-02
  9.110310e-01    1.071178e+01   2.907851e-02
  9.147744e-01    1.069795e+01   2.943602e-02
  9.185177e-01    1.073232e+01   2.966542e-02
  9.222611e-01    1.069074e+01   2.970219e-02
  9.260044e-01    1.073654e+01   2.985096e-02
  9.297478e-01    1.056237e+01   2.969240e-02
  9.334912e-01    1.060219e+01   2.988599e-02
  9.372345e-01    1.054970e+01   2.998091e-02
  9.409779e-01    1.060332e+01   3.010661e-02
  9.447213e-01    1.059582e+01   3.011469e-02
  9.484646e-01    1.051893e+01   3.002250e-02
  9.522080e-01    1.055052e+01   3.007427e-02
  9.559513e-01    1.054139e+01   3.003668e-02
  9.596947e-01    1.059367e+01   3.007915e-02
  9.634381e-01    1.064569e+01   3.012354e-02
  9.671814e-01    1.060742e+01   3.009926e-02
  9.709248e-01    1.052448e+01   3.000593e-02
  9.746681e-01    1.050169e+01   2.999887e-02
  9.784115e-01    1.044794e+01   2.994133e-02
  9.821549e-01    1.054663e+01   3.009537e-02
  9.858982e-01    1.046673e+01   3.000167e-02
  9.896416e-01    1.053358e+01   3.010705e-02
  9.933850e-01    1.058949e+01   3.019782e-02
  9.971283e-01    1.060446e+01   3.023522e-02
  1.000872e+00    1.054914e+01   3.015925e-02
  1.004615e+00    1.050477e+01   3.010708e-02
  1.008358e+00    1.048833e+01   3.009244e-02
  1.012102e+00    1.052053e+01   3.014616e-02
  1.015845e+00    1.050226e+01   3.012136e-02
  1.019588e+00    1.050427e+01   3.012570e-02
  1.023332e+00    1.049820e+01   3.011650e-02
  1.027075e+00    1.044056e+01   3.003856e-02
  1.030819e+00    1.060539e+01   3.026657e-02
  1.034562e+00    1.057307e+01   3.022668e-02
  1.038305e+00    1.048431e+01   3.010048e-02
  1.042049e+00    1.048109e+01   3.009403e-02
  1.045792e+00    1.050827e+01   3.012703e-02
  1.049535e+00    1.049380e+01   3.010011e-02
  1.053279e+00    1.045369e+01   3.004029e-02
  1.057022e+00    1.044276e+01   3.001799e-02
  1.060765e+00    1.041188e+01   2.996586e-02
  1.064509e+00    1.039307e+01   2.993576e-02
  1.068252e+00    1.040836e+01   2.995354e-02
  1.071996e+00    1.041803e+01   2.995935e-02
  1.075739e+00    1.040138e+01   2.992128e-02
  1.079482e+00    1.032578e+01   2.980607e-02
  1.083226e+00    1.037961e+01   2.987337e-02
  1.086969e+00    1.026746e+01   2.970593e-02
  1.090712e+00    1.030617e+01   2.974603e-02
  1.094456e+00    1.036272e+01   2.981670e-02
  1.098199e+00    1.036730e+01   2.981616e-02
  1.101942e+00    1.031801e+01   2.973528e-02
  1.105686e+00    1.038758e+01   2.982582e-02
  1.109429e+00    1.040464e+01   2.984374e-02
  1.113173e+00    1.035525e+01   2.976191e-02
  1.116916e+00    1.033758e+01   2.972314e-02
  1.120659e+00    1.040338e+01   2.980488e-02
  1.124403e+00    1.037361e+01   2.975325e-02
  1.128146e+00    1.035100e+01   2.970992e-02
  1.131889e+00    1.033062e+01   2.965880e-02
  1.135633e+00    1.040033e+01   2.974144e-02
  1.139376e+00    1.036228e+01   2.968010e-02
  1.143119e+00    1.034840e+01   2.964972e-02
  1.146863e+00    1.035873e+01   2.965262e-02
  1.150606e+00    1.036335e+01   2.963461e-02
  1.154350e+00    1.028233e+01   2.950613e-02
  1.158093e+00    1.028086e+01   2.949166e-02
  1.161836e+00    1.035003e+01   2.957777e-02
  1.165580e+00    1.035606e+01   2.957102e-02
  1.169323e+00    1.032385e+01   2.951059e-02
  1.173066e+00    1.037045e+01   2.956041e-02
  1.176810e+00    1.030665e+01   2.945362e-02
  1.180553e+00    1.033923e+01   2.948331e-02
  1.184296e+00    1.027801e+01   2.937928e-02
  1.188040e+00    1.026846e+01   2.935089e-02
  1.191783e+00    1.024900e+01   2.930708e-02
  1.195527e+00    1.026269e+01   2.931956e-02
  1.199270e+00    1.032106e+01   2.939514e-02
  1.203013e+00    1.020424e+01   2.922114e-02
  1.206757e+00    1.030393e+01   2.936235e-02
  1.210500e+00    1.030739e+01   2.935158e-02
  1.214243e+00    1.021940e+01   2.921763e-02
  1.217987e+00    1.009369e+01   2.902237e-02
  1.221730e+00    1.010456e+01   2.902934e-02
  1.225473e+00    1.016520e+01   2.910330e-02
  1.229217e+00    1.015487e+01   2.908030e-02
  1.232960e+00    1.024136e+01   2.919031e-02
  1.236704e+00    1.011526e+01   2.899872e-02
  1.240447e+00    1.007321e+01   2.893054e-02
  1.244190e+00    1.003972e+01   2.886537e-02
  1.247934e+00    9.990101e+00   2.878579e-02
  1.251677e+00    9.979318e+00   2.875844e-02
  1.255420e+00    9.905249e+00   2.864074e-02
  1.259164e+00    1.007498e+01   2.886592e-02
  1.262907e+00    9.981456e+00   2.872145e-02
  1.266650e+00    9.964592e+00   2.868304e-02
  1.270394e+00    1.004391e+01   2.878904e-02
  1.274137e+00    9.983580e+00   2.869118e-02
  1.277880e+00    9.956829e+00   2.863759e-02
  1.281624e+00    9.946469e+00   2.861225e-02
  1.285367e+00    9.967106e+00   2.863942e-02
  1.289111e+00    9.865848e+00   2.850420e-02
  1.292854e+00    9.927816e+00   2.859517e-02
  1.296597e+00    9.875927e+00   2.851929e-02
  1.300341e+00    9.830651e+00   2.845895e-02
  1.304084e+00    9.866140e+00   2.851386e-02
  1.307827e+00    9.853046e+00   2.849508e-02
  1.311571e+00    9.890948e+00   2.855390e-02
  1.315314e+00    9.835083e+00   2.847551e-02
  1.319057e+00    9.883100e+00   2.854767e-02
  1.322801e+00    9.857614e+00   2.850908e-02
  1.326544e+00    9.824879e+00   2.846416e-02
  1.330288e+00    9.850639e+00   2.849429e-02
  1.334031e+00    9.929287e+00   2.860770e-02
  1.337774e+00    9.801434e+00   2.842272e-02
  1.341518e+00    9.884163e+00   2.854373e-02
  1.345261e+00    9.846598e+00   2.818771e-02
  1.349004e+00    9.761767e+00   2.775875e-02
  1.352748e+00    9.778235e+00   2.767090e-02
  1.356491e+00    9.815632e+00   2.763887e-02
  1.360234e+00    9.833602e+00   2.759254e-02
  1.363978e+00    9.807306e+00   2.749364e-02
  1.367721e+00    9.718380e+00   2.731038e-02
  1.371465e+00    9.757511e+00   2.731141e-02
  1.375208e+00    9.739487e+00   2.726723e-02
  1.378951e+00    9.747047e+00   2.726735e-02
  1.382695e+00    9.751302e+00   2.727880e-02
  1.386438e+00    9.754808e+00   2.727465e-02
  1.390181e+00    9.664729e+00   2.713900e-02
  1.393925e+00    9.634433e+00   2.709689e-02
  1.397668e+00    9.699079e+00   2.718930e-02
  1.401411e+00    9.707158e+00   2.718698e-02
  1.405155e+00    9.611003e+00   2.705172e-02
  1.408898e+00    9.613256e+00   2.704900e-02
  1.412642e+00    9.577212e+00   2.699297e-02
  1.416385e+00    9.564955e+00   2.696843e-02
  1.420128e+00    9.555081e+00   2.694873e-02
  1.423872e+00    9.583028e+00   2.698253e-02
  1.427615e+00    9.679402e+00   2.711179e-02
  1.431358e+00    9.554918e+00   2.693068e-02
  1.435102e+00    9.537258e+00   2.689195e-02
  1.438845e+00    9.505369e+00   2.685147e-02
  1.442588e+00    9.485592e+00   2.681282e-02
  1.446332e+00    9.608565e+00   2.697884e-02
  1.450075e+00    9.582686e+00   2.694358e-02
  1.453819e+00    9.484181e+00   2.679184e-02
  1.457562e+00    9.483951e+00   2.678113e-02
  1.461305e+00    9.470312e+00   2.676207e-02
  1.465049e+00    9.483217e+00   2.678500e-02
  1.468792e+00    9.499701e+00   2.680977e-02
  1.472535e+00    9.403169e+00   2.667947e-02
  1.476279e+00    9.406435e+00   2.669178e-02
  1.480022e+00    9.420254e+00   2.671531e-02
  1.483765e+00    9.408946e+00   2.669788e-02
  1.487509e+00    9.393971e+00   2.668780e-02
  1.491252e+00    9.388593e+00   2.668120e-02
  1.494995e+00    9.396328e+00   2.669245e-02
  1.498739e+00    9.405533e+00   2.671242e-02
  1.502482e+00    9.383710e+00   2.668201e-02
  1.506226e+00    9.350445e+00   2.663585e-02
  1.509969e+00    9.360275e+00   2.665815e-02
  1.513712e+00    9.372679e+00   2.667136e-02
  1.517456e+00    9.336712e+00   2.662523e-02
  1.521199e+00    9.391438e+00   2.670176e-02
  1.524942e+00    9.306540e+00   2.658218e-02
  1.528686e+00    9.336311e+00   2.662833e-02
  1.532429e+00    9.278026e+00   2.654419e-02
  1.536172e+00    9.275489e+00   2.654045e-02
  1.539916e+00    9.169192e+00   2.639481e-02
  1.543659e+00    9.191624e+00   2.642151e-02
  1.547403e+00    9.231812e+00   2.647691e-02
  1.551146e+00    9.229572e+00   2.647617e-02
  1.554889e+00    9.213434e+00   2.645385e-02
  1.558633e+00    9.257339e+00   2.651162e-02
  1.562376e+00    9.236818e+00   2.648558e-02
  1.566119e+00    9.278780e+00   2.654207e-02
  1.569863e+00    9.191154e+00   2.641559e-02
  1.573606e+00    9.194588e+00   2.642441e-02
  1.577349e+00    9.266062e+00   2.652267e-02
  1.581093e+00    9.211905e+00   2.644558e-02
  1.584836e+00    9.168156e+00   2.637946e-02
  1.588580e+00    9.159960e+00   2.637085e-02
  1.592323e+00    9.171319e+00   2.638082e-02
  1.596066e+00    9.124485e+00   2.630825e-02
  1.599810e+00    9.151623e+00   2.634945e-02
  1.603553e+00    9.216199e+00   2.644208e-02
  1.607296e+00    9.169851e+00   2.636877e-02
  1.611040e+00    9.091575e+00   2.625430e-02
  1.614783e+00    9.141962e+00   2.632654e-02
  1.618526e+00    9.090740e+00   2.624702e-02
  1.622270e+00    9.047552e+00   2.617946e-02
  1.626013e+00    9.073083e+00   2.621473e-02
  1.629757e+00    9.096693e+00   2.624580e-02
  1.633500e+00    9.086085e+00   2.622537e-02
  1.637243e+00    9.090599e+00   2.623098e-02
  1.640987e+00    9.070727e+00   2.620302e-02
  1.644730e+00    9.017885e+00   2.613173e-02
  1.648473e+00    9.030232e+00   2.615405e-02
  1.652217e+00    9.036458e+00   2.617092e-02
  1.655960e+00    8.986424e+00   2.610176e-02
  1.659703e+00    8.980983e+00   2.610103e-02
  1.663447e+00    8.958687e+00   2.607323e-02
  1.667190e+00    8.870574e+00   2.595288e-02
  1.670934e+00    8.938365e+00   2.605553e-02
  1.674677e+00    8.986479e+00   2.612842e-02
  1.678420e+00    8.866530e+00   2.595795e-02
  1.682164e+00    8.879297e+00   2.597995e-02
  1.685907e+00    8.881101e+00   2.598637e-02
  1.689650e+00    8.886400e+00   2.600201e-02
  1.693394e+00    8.874081e+00   2.598726e-02
  1.697137e+00    8.848087e+00   2.594905e-02
  1.700880e+00    8.783079e+00   2.585813e-02
  1.704624e+00    8.843617e+00   2.594792e-02
  1.708367e+00    8.815295e+00   2.591254e-02
  1.712111e+00    8.851246e+00   2.596920e-02
  1.715854e+00    8.820857e+00   2.592648e-02
  1.719597e+00    8.782768e+00   2.587289e-02
  1.723341e+00    8.731262e+00   2.579670e-02
  1.727084e+00    8.721035e+00   2.578118e-02
  1.730827e+00    8.745134e+00   2.582052e-02
  1.734571e+00    8.789543e+00   2.588620e-02
  1.738314e+00    8.768379e+00   2.585609e-02
  1.742057e+00    8.796817e+00   2.590027e-02
  1.745801e+00    8.784750e+00   2.588989e-02
  1.749544e+00    8.823322e+00   2.594915e-02
  1.753287e+00    8.748356e+00   2.583851e-02
  1.757031e+00    8.776488e+00   2.588057e-02
  1.760774e+00    8.791984e+00   2.591004e-02
  1.764518e+00    8.664298e+00   2.573255e-02
  1.768261e+00    8.726749e+00   2.583186e-02
  1.772004e+00    8.698141e+00   2.579619e-02
  1.775748e+00    8.636955e+00   2.571046e-02
  1.779491e+00    8.723673e+00   2.584336e-02
  1.783234e+00    8.708807e+00   2.582766e-02
  1.786978e+00    8.687891e+00   2.580329e-02
  1.790721e+00    8.633665e+00   2.572842e-02
  1.794464e+00    8.631758e+00   2.573331e-02
  1.798208e+00    8.646223e+00   2.576650e-02
  1.801951e+00    8.581743e+00   2.566982e-02
  1.805695e+00    8.609687e+00   2.571260e-02
  1.809438e+00    8.593748e+00   2.569956e-02
  1.813181e+00    8.651064e+00   2.579129e-02
  1.816925e+00    8.642829e+00   2.578359e-02
  1.820668e+00    8.613128e+00   2.574460e-02
  1.824411e+00    8.633543e+00   2.577604e-02
  1.828155e+00    8.563556e+00   2.568008e-02
  1.831898e+00    8.509405e+00   2.560333e-02
  1.835641e+00    8.519590e+00   2.561983e-02
  1.839385e+00    8.587402e+00   2.572528e-02
  1.843128e+00    8.572487e+00   2.570929e-02
  1.846872e+00    8.646987e+00   2.582050e-02
  1.850615e+00    8.613284e+00   2.577662e-02
  1.854358e+00    8.583580e+00   2.573549e-02
  1.858102e+00    8.552831e+00   2.569107e-02
  1.861845e+00    8.570515e+00   2.572269e-02
  1.865588e+00    8.509024e+00   2.563314e-02
  1.869332e+00    8.423964e+00   2.550794e-02
  1.873075e+00    8.510800e+00   2.564056e-02
  1.876818e+00    8.509299e+00   2.564044e-02
  1.880562e+00    8.432114e+00   2.552261e-02
  1.884305e+00    8.383033e+00   2.545422e-02
  1.888049e+00    8.329219e+00   2.536961e-02
  1.891792e+00    8.379893e+00   2.545271e-02
  1.895535e+00    8.388746e+00   2.546410e-02
  1.899279e+00    8.388981e+00   2.546659e-02
  1.903022e+00    8.405993e+00   2.549750e-02
  1.906765e+00    8.360480e+00   2.542786e-02
  1.910509e+00    8.394610e+00   2.547774e-02
  1.914252e+00    8.370504e+00   2.544464e-02
  1.917995e+00    8.379729e+00   2.546032e-02
  1.921739e+00    8.309802e+00   2.535376e-02
  1.925482e+00    8.271157e+00   2.529555e-02
  1.929226e+00    8.235564e+00   2.524602e-02
  1.932969e+00    8.225355e+00   2.522877e-02
  1.936712e+00    8.244804e+00   2.526219e-02
  1.940456e+00    8.200676e+00   2.519692e-02
  1.944199e+00    8.149781e+00   2.511378e-02
  1.947942e+00    8.144939e+00   2.510584e-02
  1.951686e+00    8.165465e+00   2.514017e-02
  1.955429e+00    8.163424e+00   2.513462e-02
  1.959172e+00    8.206706e+00   2.520421e-02
  1.962916e+00    8.189697e+00   2.517697e-02
  1.966659e+00    8.181287e+00   2.516283e-02
  1.970402e+00    8.147277e+00   2.511270e-02
  1.974146e+00    8.135524e+00   2.509150e-02
  1.977889e+00    8.168858e+00   2.514268e-02
  1.981633e+00    8.097352e+00   2.503187e-02
  1.985376e+00    8.088077e+00   2.501993e-02
  1.989119e+00    8.102888e+00   2.504347e-02
  1.992863e+00    8.068110e+00   2.498904e-02
  1.996606e+00    8.120849e+00   2.506743e-02
  2.000349e+00    8.055044e+00   2.496920e-02
  2.004093e+00    8.048674e+00   2.495517e-02
  2.007836e+00    8.057644e+00   2.496791e-02
  2.011579e+00    8.069916e+00   2.498584e-02
  2.015323e+00    8.060275e+00   2.496931e-02
  2.019066e+00    8.081722e+00   2.500528e-02
  2.022810e+00    8.007577e+00   2.488819e-02
  2.026553e+00    8.044918e+00   2.494326e-02
  2.030296e+00    8.008784e+00   2.489093e-02
  2.034040e+00    7.969471e+00   2.482702e-02
  2.037783e+00    7.996353e+00   2.486865e-02
  2.041526e+00    7.990088e+00   2.485852e-02
  2.045270e+00    8.008182e+00   2.488436e-02
  2.049013e+00    7.951972e+00   2.479610e-02
  2.052756e+00    7.926590e+00   2.476965e-02
  2.056500e+00    7.967911e+00   2.485809e-02
  2.060243e+00    7.951235e+00   2.485953e-02
  2.063987e+00    7.928659e+00   2.484099e-02
  2.067730e+00    7.921999e+00   2.485765e-02
  2.071473e+00    7.939213e+00   2.490647e-02
  2.075217e+00    7.955219e+00   2.495391e-02
  2.078960e+00    7.906680e+00   2.489860e-02
  2.082703e+00    7.868604e+00   2.485318e-02
  2.086447e+00    7.839157e+00   2.482981e-02
  2.090190e+00    7.890432e+00   2.493561e-02
  2.093933e+00    7.858811e+00   2.489530e-02
  2.097677e+00    7.839143e+00   2.488328e-02
  2.101420e+00    7.869775e+00   2.495312e-02
  2.105164e+00    7.812842e+00   2.488063e-02
  2.108907e+00    7.801042e+00   2.488299e-02
  2.112650e+00    7.795914e+00   2.488941e-02
  2.116394e+00    7.752347e+00   2.483044e-02
  2.120137e+00    7.791553e+00   2.491484e-02
  2.123880e+00    7.803900e+00   2.495550e-02
  2.127624e+00    7.766355e+00   2.490979e-02
  2.131367e+00    7.740917e+00   2.489070e-02
  2.135110e+00    7.798763e+00   2.500241e-02
  2.138854e+00    7.819901e+00   2.504921e-02
  2.142597e+00    7.790268e+00   2.501825e-02
  2.146341e+00    7.767550e+00   2.499639e-02
  2.150084e+00    7.781792e+00   2.503020e-02
  2.153827e+00    7.762122e+00   2.501470e-02
  2.157571e+00    7.767086e+00   2.503880e-02
  2.161314e+00    7.857028e+00   2.519644e-02
  2.165057e+00    7.762443e+00   2.506018e-02
  2.168801e+00    7.704511e+00   2.498678e-02
  2.172544e+00    7.693453e+00   2.498201e-02
  2.176287e+00    7.753761e+00   2.509073e-02
  2.180031e+00    7.733016e+00   2.507413e-02
  2.183774e+00    7.690035e+00   2.502270e-02
  2.187518e+00    7.667640e+00   2.499554e-02
  2.191261e+00    7.700916e+00   2.506339e-02
  2.195004e+00    7.704604e+00   2.508380e-02
  2.198748e+00    7.666362e+00   2.503058e-02
  2.202491e+00    7.662986e+00   2.503409e-02
  2.206234e+00    7.636126e+00   2.500828e-02
  2.209978e+00    7.570261e+00   2.491515e-02
  2.213721e+00    7.669348e+00   2.509029e-02
  2.217464e+00    7.630674e+00   2.503841e-02
  2.221208e+00    7.630025e+00   2.504990e-02
  2.224951e+00    7.632820e+00   2.505970e-02
  2.228694e+00    7.621265e+00   2.505715e-02
  2.232438e+00    7.627823e+00   2.507984e-02
  2.236181e+00    7.601906e+00   2.505079e-02
  2.239925e+00    7.591774e+00   2.504181e-02
  2.243668e+00    7.690584e+00   2.522181e-02
  2.247411e+00    7.604235e+00   2.509291e-02
  2.251155e+00    7.625711e+00   2.513287e-02
  2.254898e+00    7.621734e+00   2.513378e-02
  2.258641e+00    7.596705e+00   2.510863e-02
  2.262385e+00    7.582247e+00   2.509762e-02
  2.266128e+00    7.592772e+00   2.512070e-02
  2.269871e+00    7.612827e+00   2.516588e-02
  2.273615e+00    7.550560e+00   2.507588e-02
  2.277358e+00    7.553749e+00   2.509240e-02
  2.281102e+00    7.578350e+00   2.513949e-02
  2.284845e+00    7.550470e+00   2.510586e-02
  2.288588e+00    7.546465e+00   2.511083e-02
  2.292332e+00    7.560123e+00   2.514549e-02
  2.296075e+00    7.520961e+00   2.508593e-02
  2.299818e+00    7.503467e+00   2.506665e-02
  2.303562e+00    7.576481e+00   2.520021e-02
  2.307305e+00    7.554358e+00   2.517092e-02
  2.311048e+00    7.556628e+00   2.517612e-02
  2.314792e+00    7.581463e+00   2.523017e-02
  2.318535e+00    7.540300e+00   2.516986e-02
  2.322279e+00    7.514812e+00   2.513779e-02
  2.326022e+00    7.546710e+00   2.519878e-02
  2.329765e+00    7.597341e+00   2.529247e-02
  2.333509e+00    7.590093e+00   2.528933e-02
  2.337252e+00    7.556015e+00   2.524057e-02
  2.340995e+00    7.550199e+00   2.523766e-02
  2.344739e+00    7.531692e+00   2.521894e-02
  2.348482e+00    7.517938e+00   2.520524e-02
  2.352225e+00    7.540471e+00   2.524893e-02
  2.355969e+00    7.494607e+00   2.517885e-02
  2.359712e+00    7.480064e+00   2.516446e-02
  2.363456e+00    7.478479e+00   2.517276e-02
  2.367199e+00    7.545339e+00   2.529163e-02
  2.370942e+00    7.539644e+00   2.528044e-02
  2.374686e+00    7.518253e+00   2.525396e-02
  2.378429e+00    7.564058e+00   2.534064e-02
  2.382172e+00    7.495590e+00   2.523379e-02
  2.385916e+00    7.489727e+00   2.522700e-02
  2.389659e+00    7.446604e+00   2.516068e-02
  2.393402e+00    7.463229e+00   2.519687e-02
  2.397146e+00    7.436163e+00   2.516020e-02
  2.400889e+00    7.470330e+00   2.522084e-02
  2.404633e+00    7.433522e+00   2.516631e-02
  2.408376e+00    7.430792e+00   2.516968e-02
  2.412119e+00    7.465569e+00   2.523525e-02
  2.415863e+00    7.524794e+00   2.533815e-02
  2.419606e+00    7.453322e+00   2.522682e-02
  2.423349e+00    7.442558e+00   2.521657e-02
  2.427093e+00    7.411727e+00   2.516964e-02
  2.430836e+00    7.405312e+00   2.516584e-02
  2.434579e+00    7.362752e+00   2.509484e-02
  2.438323e+00    7.432699e+00   2.521948e-02
  2.442066e+00    7.458284e+00   2.527173e-02
  2.445809e+00    7.433443e+00   2.523594e-02
  2.449553e+00    7.412012e+00   2.520432e-02
  2.453296e+00    7.405988e+00   2.519994e-02
  2.457040e+00    7.430243e+00   2.524710e-02
  2.460783e+00    7.496130e+00   2.536617e-02
  2.464526e+00    7.460674e+00   2.530792e-02
  2.468270e+00    7.454534e+00   2.530431e-02
  2.472013e+00    7.378930e+00   2.518270e-02
  2.475756e+00    7.389471e+00   2.520845e-02
  2.479500e+00    7.436620e+00   2.529476e-02
  2.483243e+00    7.382210e+00   2.521975e-02
  2.486986e+00    7.327058e+00   2.514880e-02
  2.490730e+00    7.363672e+00   2.523330e-02
  2.494473e+00    7.343271e+00   2.521993e-02
  2.498217e+00    7.422657e+00   2.537668e-02
  2.501960e+00    7.338181e+00   2.526482e-02
  2.505703e+00    7.368533e+00   2.535378e-02
  2.509447e+00    7.386456e+00   2.541945e-02
  2.513190e+00    7.300435e+00   2.530189e-02
  2.516933e+00    7.341633e+00   2.540715e-02
  2.520677e+00    7.342288e+00   2.544343e-02
  2.524420e+00    7.408976e+00   2.559709e-02
  2.528163e+00    7.380243e+00   2.558170e-02
  2.531907e+00    7.356329e+00   2.557235e-02
  2.535650e+00    7.374837e+00   2.563874e-02
  2.539394e+00    7.416050e+00   2.574154e-02
  2.543137e+00    7.379459e+00   2.571055e-02
  2.546880e+00    7.362869e+00   2.571342e-02
  2.550624e+00    7.401788e+00   2.581517e-02
  2.554367e+00    7.411430e+00   2.586355e-02
  2.558110e+00    7.395519e+00   2.586921e-02
  2.561854e+00    7.394229e+00   2.589648e-02
  2.565597e+00    7.379105e+00   2.590034e-02
  2.569340e+00    7.358006e+00   2.589324e-02
  2.573084e+00    7.358685e+00   2.592333e-02
  2.576827e+00    7.379854e+00   2.599281e-02
  2.580571e+00    7.343367e+00   2.595903e-02
  2.584314e+00    7.354669e+00   2.600791e-02
  2.588057e+00    7.406600e+00   2.612927e-02
  2.591801e+00    7.375205e+00   2.610194e-02
  2.595544e+00    7.336957e+00   2.606241e-02
  2.599287e+00    7.365914e+00   2.614559e-02
  2.603031e+00    7.381541e+00   2.620205e-02
  2.606774e+00    7.397874e+00   2.625938e-02
  2.610517e+00    7.415977e+00   2.631895e-02
  2.614261e+00    7.414857e+00   2.634365e-02
  2.618004e+00    7.380589e+00   2.631309e-02
  2.621748e+00    7.315742e+00   2.622465e-02
  2.625491e+00    7.311475e+00   2.624472e-02
  2.629234e+00    7.325066e+00   2.629872e-02
  2.632978e+00    7.312849e+00   2.636471e-02
  2.636721e+00    7.359336e+00   2.654308e-02
  2.640464e+00    7.322287e+00   2.656601e-02
  2.644208e+00    7.328897e+00   2.666016e-02
  2.647951e+00    7.368526e+00   2.681064e-02
  2.651694e+00    7.389348e+00   2.693069e-02
  2.655438e+00    7.330892e+00   2.690049e-02
  2.659181e+00    7.321441e+00   2.695331e-02
  2.662925e+00    7.343248e+00   2.706490e-02
  2.666668e+00    7.297004e+00   2.704772e-02
  2.670411e+00    7.291290e+00   2.710614e-02
  2.674155e+00    7.315625e+00   2.721978e-02
  2.677898e+00    7.283517e+00   2.722567e-02
  2.681641e+00    7.250709e+00   2.722866e-02
  2.685385e+00    7.230690e+00   2.725062e-02
  2.689128e+00    7.278289e+00   2.740259e-02
  2.692871e+00    7.314861e+00   2.753299e-02
  2.696615e+00    7.399112e+00   2.775838e-02
  2.700358e+00    7.341578e+00   2.776773e-02
  2.704101e+00    7.343463e+00   2.789303e-02
  2.707845e+00    7.365849e+00   2.805610e-02
  2.711588e+00    7.377542e+00   2.819393e-02
  2.715332e+00    7.337995e+00   2.823681e-02
  2.719075e+00    7.282891e+00   2.825073e-02
  2.722818e+00    7.271439e+00   2.833775e-02
  2.726562e+00    7.350881e+00   2.860146e-02
  2.730305e+00    7.266230e+00   2.854263e-02
  2.734048e+00    7.298802e+00   2.870971e-02
  2.737792e+00    7.394461e+00   2.900640e-02
  2.741535e+00    7.300616e+00   2.893034e-02
  2.745278e+00    7.241377e+00   2.891235e-02
  2.749022e+00    7.218665e+00   2.896611e-02
  2.752765e+00    7.278126e+00   2.918396e-02
  2.756509e+00    7.284736e+00   2.929431e-02
  2.760252e+00    7.291195e+00   2.940125e-02
  2.763995e+00    7.295876e+00   2.951385e-02
  2.767739e+00    7.311553e+00   2.964321e-02
  2.771482e+00    7.281328e+00   2.967871e-02
  2.775225e+00    7.222889e+00   2.964886e-02
  2.778969e+00    7.229231e+00   2.975541e-02
  2.782712e+00    7.303595e+00   2.999837e-02
  2.786455e+00    7.289128e+00   3.005811e-02
  2.790199e+00    7.218004e+00   3.000362e-02
  2.793942e+00    7.289543e+00   3.025193e-02
  2.797686e+00    7.319519e+00   3.040281e-02
  2.801429e+00    7.332450e+00   3.051746e-02
  2.805172e+00    7.351814e+00   3.064503e-02
  2.808916e+00    7.349005e+00   3.072830e-02
  2.812659e+00    7.307572e+00   3.072698e-02
  2.816402e+00    7.316075e+00   3.083080e-02
  2.820146e+00    7.258850e+00   3.079741e-02
  2.823889e+00    7.246767e+00   3.086911e-02
  2.827632e+00    7.321527e+00   3.111790e-02
  2.831376e+00    7.291336e+00   3.113591e-02
  2.835119e+00    7.337983e+00   3.132071e-02
  2.838863e+00    7.331229e+00   3.139116e-02
  2.842606e+00    7.341995e+00   3.149761e-02
  2.846349e+00    7.365462e+00   3.163466e-02
  2.850093e+00    7.353401e+00   3.169138e-02
  2.853836e+00    7.400639e+00   3.187728e-02
  2.857579e+00    7.386642e+00   3.193756e-02
  2.861323e+00    7.382543e+00   3.201646e-02
  2.865066e+00    7.343759e+00   3.201371e-02
  2.868809e+00    7.377834e+00   3.217384e-02
  2.872553e+00    7.278790e+00   3.203919e-02
  2.876296e+00    7.259399e+00   3.207747e-02
  2.880040e+00    7.219181e+00   3.207038e-02
  2.883783e+00    7.275454e+00   3.227800e-02
  2.887526e+00    7.313894e+00   3.244502e-02
  2.891270e+00    7.281677e+00   3.245485e-02
  2.895013e+00    7.325953e+00   3.264457e-02
  2.898756e+00    7.329232e+00   3.273951e-02
  2.902500e+00    7.406927e+00   3.299377e-02
  2.906243e+00    7.402011e+00   3.306418e-02
  2.909986e+00    7.402261e+00   3.314536e-02
  2.913730e+00    7.484357e+00   3.341306e-02
  2.917473e+00    7.388457e+00   3.328037e-02
  2.921216e+00    7.240283e+00   3.302511e-02
  2.924960e+00    7.266968e+00   3.316612e-02
  2.928703e+00    7.318073e+00   3.336496e-02
  2.932447e+00    7.288160e+00   3.337840e-02
  2.936190e+00    7.229523e+00   3.335235e-02
  2.939933e+00    7.239407e+00   3.352077e-02
  2.943677e+00    7.296950e+00   3.379977e-02
  2.947420e+00    7.375963e+00   3.413690e-02
  2.951163e+00    7.348568e+00   3.492373e-02
  2.954907e+00    7.342658e+00   3.568122e-02
  2.958650e+00    7.359714e+00   3.626809e-02
  2.962393e+00    7.283541e+00   3.655524e-02
  2.966137e+00    7.313947e+00   3.708889e-02
  2.969880e+00    7.355351e+00   3.760785e-02
  2.973624e+00    7.282516e+00   3.781169e-02
  2.977367e+00    7.428809e+00   3.859260e-02
  2.981110e+00    7.460370e+00   3.906853e-02
  2.984854e+00    7.406808e+00   3.930635e-02
  2.988597e+00    7.362251e+00   3.953976e-02
  2.992340e+00    7.310079e+00   3.977312e-02
  2.996084e+00    7.346458e+00   4.024226e-02
  2.999827e+00    7.296563e+00   4.047057e-02
  3.003570e+00    7.245954e+00   4.068770e-02
  3.007314e+00    7.250097e+00   4.104244e-02
  3.011057e+00    7.219154e+00   4.131078e-02
  3.014801e+00    7.314525e+00   4.194746e-02
  3.018544e+00    7.344077e+00   4.239513e-02
  3.022287e+00    7.381112e+00   4.287367e-02
  3.026031e+00    7.279845e+00   4.294522e-02
  3.029774e+00    7.209604e+00   4.310832e-02
  3.033517e+00    7.062560e+00   4.301292e-02
  3.037261e+00    7.126758e+00   4.357362e-02
  3.041004e+00    7.323447e+00   4.455093e-02
  3.044747e+00    7.302073e+00   4.486867e-02
  3.048491e+00    7.103462e+00   4.463484e-02
  3.052234e+00    7.117946e+00   4.587362e-02
  3.055978e+00    7.167582e+00   5.006009e-02
  3.059721e+00    7.132249e+00   5.271278e-02
  3.063464e+00    7.045579e+00   6.060955e-02
  3.067208e+00    7.147840e+00   6.644800e-02
  3.070951e+00    7.152615e+00   7.156617e-02
  3.074694e+00    7.068644e+00   7.682952e-02
  3.078438e+00    7.021449e+00   8.292872e-02
  3.082181e+00    6.905849e+00   8.959370e-02
  3.085924e+00    6.834178e+00   9.776873e-02
  3.089668e+00    6.787971e+00   1.088487e-01
  3.093411e+00    6.739787e+00   1.229505e-01
  3.097155e+00    6.825655e+00   1.465910e-01
  3.100898e+00    7.537344e+00   1.972256e-01
  3.104641e+00    6.885507e+00   2.849649e-01
  3.108385e+00    5.938271e+00   1.237857e+00
  3.112128e+00    0.000000e+00   0.000000e+00
  3.115871e+00    0.000000e+00   0.000000e+00
  3.119615e+00    0.000000e+00   0.000000e+00
  3.123358e+00    0.000000e+00   0.000000e+00
  3.127101e+00    0.000000e+00   0.000000e+00
  3.130845e+00    0.000000e+00   0.000000e+00
  3.134588e+00    0.000000e+00   0.000000e+00
  3.138331e+00    0.000000e+00   0.000000e+00
  3.142075e+00    0.000000e+00   0.000000e+00
  3.145818e+00    0.000000e+00   0.000000e+00
  3.149562e+00    0.000000e+00   0.000000e+00
  3.153305e+00    0.000000e+00   0.000000e+00
  3.157048e+00    0.000000e+00   0.000000e+00
  3.160792e+00    0.000000e+00   0.000000e+00
  3.164535e+00    0.000000e+00   0.000000e+00
  3.168278e+00    0.000000e+00   0.000000e+00
  3.172022e+00    0.000000e+00   0.000000e+00
  3.175765e+00    0.000000e+00   0.000000e+00
  3.179508e+00    0.000000e+00   0.000000e+00
  3.183252e+00    0.000000e+00   0.000000e+00
  3.186995e+00    0.000000e+00   0.000000e+00
  3.190739e+00    0.000000e+00   0.000000e+00
  3.194482e+00    0.000000e+00   0.000000e+00
  3.198225e+00    0.000000e+00   0.000000e+00
  3.201969e+00    0.000000e+00   0.000000e+00
  3.205712e+00    0.000000e+00   0.000000e+00
  3.209455e+00    0.000000e+00   0.000000e+00
  3.213199e+00    0.000000e+00   0.000000e+00
  3.216942e+00    0.000000e+00   0.000000e+00
  3.220685e+00    0.000000e+00   0.000000e+00
  3.224429e+00    0.000000e+00   0.000000e+00
  3.228172e+00    0.000000e+00   0.000000e+00
  3.231916e+00    0.000000e+00   0.000000e+00
  3.235659e+00    0.000000e+00   0.000000e+00
  3.239402e+00    0.000000e+00   0.000000e+00
  3.243146e+00    0.000000e+00   0.000000e+00
  3.246889e+00    0.000000e+00   0.000000e+00
  3.250632e+00    0.000000e+00   0.000000e+00
  3.254376e+00    0.000000e+00   0.000000e+00
  3.258119e+00    0.000000e+00   0.000000e+00
  3.261862e+00    0.000000e+00   0.000000e+00
  3.265606e+00    0.000000e+00   0.000000e+00
  3.269349e+00    0.000000e+00   0.000000e+00
  3.273093e+00    0.000000e+00   0.000000e+00
  3.276836e+00    0.000000e+00   0.000000e+00
  3.280579e+00    0.000000e+00   0.000000e+00
  3.284323e+00    0.000000e+00   0.000000e+00
  3.288066e+00    0.000000e+00   0.000000e+00
  3.291809e+00    0.000000e+00   0.000000e+00
  3.295553e+00    0.000000e+00   0.000000e+00
  3.299296e+00    0.000000e+00   0.000000e+00
  3.303039e+00    0.000000e+00   0.000000e+00
  3.306783e+00    0.000000e+00   0.000000e+00
  3.310526e+00    0.000000e+00   0.000000e+00
  3.314270e+00    0.000000e+00   0.000000e+00
  3.318013e+00    0.000000e+00   0.000000e+00
  3.321756e+00    0.000000e+00   0.000000e+00
  3.325500e+00    0.000000e+00   0.000000e+00
  3.329243e+00    0.000000e+00   0.000000e+00
  3.332986e+00    0.000000e+00   0.000000e+00
  3.336730e+00    0.000000e+00   0.000000e+00
  3.340473e+00    0.000000e+00   0.000000e+00
  3.344216e+00    0.000000e+00   0.000000e+00
  3.347960e+00    0.000000e+00   0.000000e+00
  3.351703e+00    0.000000e+00   0.000000e+00
  3.355447e+00    0.000000e+00   0.000000e+00
  3.359190e+00    0.000000e+00   0.000000e+00
  3.362933e+00    0.000000e+00   0.000000e+00
  3.366677e+00    0.000000e+00   0.000000e+00
  3.370420e+00    0.000000e+00   0.000000e+00
  3.374163e+00    0.000000e+00   0.000000e+00
  3.377907e+00    0.000000e+00   0.000000e+00
  3.381650e+00    0.000000e+00   0.000000e+00
  3.385393e+00    0.000000e+00   0.000000e+00
  3.389137e+00    0.000000e+00   0.000000e+00
  3.392880e+00    0.000000e+00   0.000000e+00
  3.396623e+00    0.000000e+00   0.000000e+00
  3.400367e+00    0.000000e+00   0.000000e+00
  3.404110e+00    0.000000e+00   0.000000e+00
  3.407854e+00    0.000000e+00   0.000000e+00
  3.411597e+00    0.000000e+00   0.000000e+00
  3.415340e+00    0.000000e+00   0.000000e+00
  3.419084e+00    0.000000e+00   0.000000e+00
  3.422827e+00    0.000000e+00   0.000000e+00
  3.426570e+00    0.000000e+00   0.000000e+00
  3.430314e+00    0.000000e+00   0.000000e+00
  3.434057e+00    0.000000e+00   0.000000e+00
  3.437800e+00    0.000000e+00   0.000000e+00
  3.441544e+00    0.000000e+00   0.000000e+00
  3.445287e+00    0.000000e+00   0.000000e+00
  3.449031e+00    0.000000e+00   0.000000e+00
  3.452774e+00    0.000000e+00   0.000000e+00
  3.456517e+00    0.000000e+00   0.000000e+00
  3.460261e+00    0.000000e+00   0.000000e+00
  3.464004e+00    0.000000e+00   0.000000e+00
  3.467747e+00    0.000000e+00   0.000000e+00
  3.471491e+00    0.000000e+00   0.000000e+00
  3.475234e+00    0.000000e+00   0.000000e+00
  3.478977e+00    0.000000e+00   0.000000e+00
  3.482721e+00    0.000000e+00   0.000000e+00
  3.486464e+00    0.000000e+00   0.000000e+00
  3.490208e+00    0.000000e+00   0.000000e+00
  3.493951e+00    0.000000e+00   0.000000e+00
  3.497694e+00    0.000000e+00   0.000000e+00
  3.501438e+00    0.000000e+00   0.000000e+00
  3.505181e+00    0.000000e+00   0.000000e+00
  3.508924e+00    0.000000e+00   0.000000e+00
  3.512668e+00    0.000000e+00   0.000000e+00
  3.516411e+00    0.000000e+00   0.000000e+00
  3.520154e+00    0.000000e+00   0.000000e+00
  3.523898e+00    0.000000e+00   0.000000e+00
  3.527641e+00    0.000000e+00   0.000000e+00
  3.531385e+00    0.000000e+00   0.000000e+00
  3.535128e+00    0.000000e+00   0.000000e+00
  3.538871e+00    0.000000e+00   0.000000e+00
  3.542615e+00    0.000000e+00   0.000000e+00
  3.546358e+00    0.000000e+00   0.000000e+00
  3.550101e+00    0.000000e+00   0.000000e+00
  3.553845e+00    0.000000e+00   0.000000e+00
  3.557588e+00    0.000000e+00   0.000000e+00
  3.561331e+00    0.000000e+00   0.000000e+00
  3.565075e+00    0.000000e+00   0.000000e+00
  3.568818e+00    0.000000e+00   0.000000e+00
  3.572562e+00    0.000000e+00   0.000000e+00
  3.576305e+00    0.000000e+00   0.000000e+00
  3.580048e+00    0.000000e+00   0.000000e+00
  3.583792e+00    0.000000e+00   0.000000e+00
  3.587535e+00    0.000000e+00   0.000000e+00
  3.591278e+00    0.000000e+00   0.000000e+00
  3.595022e+00    0.000000e+00   0.000000e+00
  3.598765e+00    0.000000e+00   0.000000e+00
  3.602508e+00    0.000000e+00   0.000000e+00
  3.606252e+00    0.000000e+00   0.000000e+00
  3.609995e+00    0.000000e+00   0.000000e+00
  3.613738e+00    0.000000e+00   0.000000e+00
  3.617482e+00    0.000000e+00   0.000000e+00
  3.621225e+00    0.000000e+00   0.000000e+00
  3.624969e+00    0.000000e+00   0.000000e+00
  3.628712e+00    0.000000e+00   0.000000e+00
  3.632455e+00    0.000000e+00   0.000000e+00
  3.636199e+00    0.000000e+00   0.000000e+00
  3.639942e+00    0.000000e+00   0.000000e+00
  3.643685e+00    0.000000e+00   0.000000e+00
  3.647429e+00    0.000000e+00   0.000000e+00
  3.651172e+00    0.000000e+00   0.000000e+00
  3.654915e+00    0.000000e+00   0.000000e+00
  3.658659e+00    0.000000e+00   0.000000e+00
  3.662402e+00    0.000000e+00   0.000000e+00
  3.666146e+00    0.000000e+00   0.000000e+00
  3.669889e+00    0.000000e+00   0.000000e+00
  3.673632e+00    0.000000e+00   0.000000e+00
  3.677376e+00    0.000000e+00   0.000000e+00
  3.681119e+00    0.000000e+00   0.000000e+00
  3.684862e+00    0.000000e+00   0.000000e+00
  3.688606e+00    0.000000e+00   0.000000e+00
  3.692349e+00    0.000000e+00   0.000000e+00
  3.696092e+00    0.000000e+00   0.000000e+00
  3.699836e+00    0.000000e+00   0.000000e+00
  3.703579e+00    0.000000e+00   0.000000e+00
  3.707323e+00    0.000000e+00   0.000000e+00
  3.711066e+00    0.000000e+00   0.000000e+00
  3.714809e+00    0.000000e+00   0.000000e+00
  3.718553e+00    0.000000e+00   0.000000e+00
  3.722296e+00    0.000000e+00   0.000000e+00
  3.726039e+00    0.000000e+00   0.000000e+00
  3.729783e+00    0.000000e+00   0.000000e+00
  3.733526e+00    0.000000e+00   0.000000e+00
  3.737269e+00    0.000000e+00   0.000000e+00
  3.741013e+00    0.000000e+00   0.000000e+00
  3.744756e+00    0.000000e+00   0.000000e+00
  3.748500e+00    0.000000e+00   0.000000e+00
  3.752243e+00    0.000000e+00   0.000000e+00
  3.755986e+00    0.000000e+00   0.000000e+00
  3.759730e+00    0.000000e+00   0.000000e+00
  3.763473e+00    0.000000e+00   0.000000e+00
  3.767216e+00    0.000000e+00   0.000000e+00
