# == pyFAI calibration ==
# SplineFile: None
# PixelSize: 1.720e-04, 1.720e-04 m
# PONI: 6.880e-03, 1.376e-03 m
# Distance Sample to Detector: 1.11699996948 m
# Rotations: 0.000000 0.000000 0.000000 rad
# 
# == Fit2d calibration ==
# Distance Sample-beamCenter: 1117.000 mm
# Center: x=8.000, y=40.000 pix
# Tilt: 0.000 deg  TiltPlanRot: 0.000 deg
# 
# Wavelength: 1.542e-09
# Polarization factor: None
# Normalization factor: None
# --> FT-2015-06-18-tetradecanol-1800s.rgr
#       q_nm^-1              I           sigma 
  6.434211e-03    2.650780e+04   9.593138e+01
  6.803326e-03    2.391998e+04   6.936626e+01
  7.172441e-03    1.820294e+04   5.154955e+01
  7.541557e-03    1.436718e+04   4.256066e+01
  7.910672e-03    1.086977e+04   3.606320e+01
  8.279787e-03    8.134038e+03   2.863174e+01
  8.648902e-03    5.891849e+03   2.220602e+01
  9.018017e-03    3.998917e+03   1.463202e+01
  9.387132e-03    3.119125e+03   1.147792e+01
  9.756247e-03    2.424004e+03   9.248251e+00
  1.012536e-02    2.035631e+03   7.797511e+00
  1.049448e-02    1.727823e+03   6.920121e+00
  1.086359e-02    1.453297e+03   6.064396e+00
  1.123271e-02    1.289178e+03   5.649634e+00
  1.160182e-02    1.122122e+03   5.209548e+00
  1.197094e-02    9.930737e+02   4.814961e+00
  1.234005e-02    8.821079e+02   4.525321e+00
  1.270917e-02    7.824648e+02   4.154777e+00
  1.307828e-02    7.081999e+02   3.939686e+00
  1.344740e-02    6.324203e+02   3.666905e+00
  1.381651e-02    5.707483e+02   3.445272e+00
  1.418563e-02    5.140516e+02   3.252468e+00
  1.455474e-02    4.660233e+02   3.029804e+00
  1.492386e-02    4.272584e+02   2.897905e+00
  1.529297e-02    3.874145e+02   2.710996e+00
  1.566209e-02    3.528681e+02   2.571632e+00
  1.603120e-02    3.223377e+02   2.439372e+00
  1.640032e-02    2.931037e+02   2.284783e+00
  1.676943e-02    2.673144e+02   2.182493e+00
  1.713855e-02    2.476857e+02   2.059383e+00
  1.750766e-02    2.300006e+02   1.980388e+00
  1.787678e-02    2.111454e+02   1.879283e+00
  1.824589e-02    1.963798e+02   1.787240e+00
  1.861501e-02    1.836853e+02   1.729648e+00
  1.898412e-02    1.707100e+02   1.632490e+00
  1.935324e-02    1.570783e+02   1.567107e+00
  1.972235e-02    1.460012e+02   1.493743e+00
  2.009147e-02    1.388773e+02   1.442166e+00
  2.046058e-02    1.302693e+02   1.395887e+00
  2.082970e-02    1.217638e+02   1.322905e+00
  2.119882e-02    1.138070e+02   1.281741e+00
  2.156793e-02    1.057706e+02   1.220019e+00
  2.193705e-02    9.931725e+01   1.173723e+00
  2.230616e-02    9.277698e+01   1.131155e+00
  2.267528e-02    8.542635e+01   1.099636e+00
  2.304439e-02    7.815549e+01   1.081935e+00
  2.341351e-02    7.247934e+01   1.039785e+00
  2.378262e-02    6.852170e+01   1.014147e+00
  2.415174e-02    6.462192e+01   9.867709e-01
  2.452085e-02    6.086263e+01   9.522065e-01
  2.488997e-02    5.766410e+01   9.321807e-01
  2.525908e-02    5.390390e+01   8.933495e-01
  2.562820e-02    5.079698e+01   8.688703e-01
  2.599731e-02    4.859000e+01   8.481892e-01
  2.636643e-02    4.610073e+01   8.218855e-01
  2.673554e-02    4.328351e+01   7.993273e-01
  2.710466e-02    4.131028e+01   7.726213e-01
  2.747377e-02    3.952001e+01   7.576835e-01
  2.784289e-02    3.746054e+01   7.343002e-01
  2.821200e-02    3.647564e+01   7.217276e-01
  2.858112e-02    3.543260e+01   7.124705e-01
  2.895023e-02    3.351673e+01   6.865368e-01
  2.931935e-02    3.150296e+01   6.670698e-01
  2.968846e-02    2.989759e+01   6.457079e-01
  3.005758e-02    2.826860e+01   6.262312e-01
  3.042669e-02    2.640613e+01   6.050550e-01
  3.079581e-02    2.554518e+01   5.905425e-01
  3.116492e-02    2.476266e+01   5.828438e-01
  3.153404e-02    2.393110e+01   5.682510e-01
  3.190315e-02    2.275309e+01   5.535827e-01
  3.227227e-02    2.172580e+01   5.397290e-01
  3.264138e-02    2.119725e+01   5.296208e-01
  3.301050e-02    2.050868e+01   5.224514e-01
  3.337961e-02    1.946798e+01   5.040021e-01
  3.374873e-02    1.867024e+01   4.938421e-01
  3.411784e-02    1.816045e+01   4.852341e-01
  3.448696e-02    1.749199e+01   4.737592e-01
  3.485607e-02    1.640991e+01   4.597477e-01
  3.522519e-02    1.610827e+01   4.513624e-01
  3.559430e-02    1.594665e+01   4.495335e-01
  3.596342e-02    1.546154e+01   4.402084e-01
  3.633253e-02    1.501887e+01   4.324528e-01
  3.670165e-02    1.429810e+01   4.221421e-01
  3.707076e-02    1.392782e+01   4.132776e-01
  3.743988e-02    1.366807e+01   4.098713e-01
  3.780899e-02    1.327217e+01   4.013407e-01
  3.817811e-02    1.270671e+01   3.919373e-01
  3.854722e-02    1.199801e+01   3.802940e-01
  3.891634e-02    1.153180e+01   3.703255e-01
  3.928545e-02    1.108760e+01   3.639895e-01
  3.965457e-02    1.058066e+01   3.525305e-01
  4.002369e-02    1.053806e+01   3.515956e-01
  4.039280e-02    1.019780e+01   3.450322e-01
  4.076192e-02    9.705843e+00   3.349664e-01
  4.113103e-02    9.654049e+00   3.344085e-01
  4.150015e-02    9.467820e+00   3.283019e-01
  4.186926e-02    9.195601e+00   3.239301e-01
  4.223838e-02    9.015103e+00   3.193463e-01
  4.260749e-02    8.840297e+00   3.149449e-01
  4.297661e-02    8.650774e+00   3.117775e-01
  4.334572e-02    8.242970e+00   3.021092e-01
  4.371484e-02    7.983687e+00   2.974554e-01
  4.408395e-02    7.791595e+00   2.923425e-01
  4.445307e-02    7.610554e+00   2.882466e-01
  4.482218e-02    7.410442e+00   2.841447e-01
  4.519130e-02    7.425439e+00   2.826941e-01
  4.556041e-02    7.192141e+00   2.786043e-01
  4.592953e-02    6.709181e+00   2.671853e-01
  4.629864e-02    6.526166e+00   2.631974e-01
  4.666776e-02    6.508840e+00   2.624938e-01
  4.703687e-02    6.380072e+00   2.584773e-01
  4.740599e-02    6.269368e+00   2.565006e-01
  4.777510e-02    6.202403e+00   2.532687e-01
  4.814422e-02    6.038058e+00   2.498330e-01
  4.851333e-02    5.570688e+00   2.392289e-01
  4.888245e-02    5.534957e+00   2.376321e-01
  4.925156e-02    5.408090e+00   2.348882e-01
  4.962068e-02    5.386565e+00   2.328181e-01
  4.998979e-02    5.426652e+00   2.338692e-01
  5.035891e-02    5.330549e+00   2.307244e-01
  5.072802e-02    5.188707e+00   2.270080e-01
  5.109714e-02    4.936379e+00   2.213875e-01
  5.146625e-02    4.958358e+00   2.205041e-01
  5.183537e-02    4.979826e+00   2.211384e-01
  5.220448e-02    4.826650e+00   2.165844e-01
  5.257360e-02    4.704213e+00   2.133850e-01
  5.294271e-02    4.659348e+00   2.121481e-01
  5.331183e-02    4.571513e+00   2.091307e-01
  5.368094e-02    4.458284e+00   2.066332e-01
  5.405006e-02    4.387184e+00   2.036775e-01
  5.441917e-02    4.359928e+00   2.029631e-01
  5.478829e-02    4.317328e+00   2.014354e-01
  5.515740e-02    4.413350e+00   2.029699e-01
  5.552652e-02    4.250729e+00   1.992452e-01
  5.589563e-02    3.894902e+00   1.894373e-01
  5.626475e-02    3.785404e+00   1.869110e-01
  5.663386e-02    4.115073e+00   1.941391e-01
  5.700298e-02    4.037123e+00   1.917121e-01
  5.737209e-02    3.807850e+00   1.862234e-01
  5.774121e-02    3.811450e+00   1.851999e-01
  5.811032e-02    3.813715e+00   1.853464e-01
  5.847944e-02    3.724577e+00   1.823828e-01
  5.884855e-02    3.711813e+00   1.816607e-01
  5.921767e-02    3.717237e+00   1.816760e-01
  5.958679e-02    3.421553e+00   1.734709e-01
  5.995590e-02    3.337598e+00   1.713661e-01
  6.032502e-02    3.290944e+00   1.693208e-01
  6.069413e-02    3.286537e+00   1.690067e-01
  6.106325e-02    3.266330e+00   1.681644e-01
  6.143236e-02    3.086080e+00   1.629062e-01
  6.180148e-02    3.064658e+00   1.623641e-01
  6.217059e-02    3.098372e+00   1.622791e-01
  6.253971e-02    3.161967e+00   1.639570e-01
  6.290882e-02    3.099699e+00   1.618434e-01
  6.327794e-02    3.033942e+00   1.597075e-01
  6.364705e-02    2.996036e+00   1.586655e-01
  6.401617e-02    2.985596e+00   1.574936e-01
  6.438528e-02    3.015814e+00   1.584175e-01
  6.475440e-02    3.093473e+00   1.598015e-01
  6.512351e-02    3.036588e+00   1.579862e-01
  6.549263e-02    2.850697e+00   1.530019e-01
  6.586174e-02    2.803183e+00   1.509787e-01
  6.623086e-02    2.847985e+00   1.522784e-01
  6.659997e-02    2.827948e+00   1.510376e-01
  6.696909e-02    2.807234e+00   1.502438e-01
  6.733820e-02    2.837865e+00   1.509539e-01
  6.770732e-02    2.809931e+00   1.495789e-01
  6.807643e-02    2.772065e+00   1.486547e-01
  6.844555e-02    2.774215e+00   1.479076e-01
  6.881466e-02    2.709704e+00   1.460844e-01
  6.918378e-02    2.628827e+00   1.436435e-01
  6.955289e-02    2.576708e+00   1.417714e-01
  6.992201e-02    2.629375e+00   1.431584e-01
  7.029112e-02    2.802510e+00   1.471487e-01
  7.066024e-02    2.651703e+00   1.430672e-01
  7.102935e-02    2.503960e+00   1.386216e-01
  7.139847e-02    2.502865e+00   1.383148e-01
  7.176758e-02    2.496036e+00   1.379973e-01
  7.213670e-02    2.517665e+00   1.380334e-01
  7.250581e-02    2.465543e+00   1.366102e-01
  7.287493e-02    2.430497e+00   1.350713e-01
  7.324404e-02    2.457502e+00   1.357053e-01
  7.361316e-02    2.407214e+00   1.341016e-01
  7.398227e-02    2.348055e+00   1.319604e-01
  7.435139e-02    2.288669e+00   1.303605e-01
  7.472050e-02    2.370142e+00   1.319692e-01
  7.508962e-02    2.402809e+00   1.328666e-01
  7.545873e-02    2.384838e+00   1.321065e-01
  7.582785e-02    2.365594e+00   1.311471e-01
  7.619696e-02    2.297009e+00   1.293193e-01
  7.656608e-02    2.248072e+00   1.272502e-01
  7.693519e-02    2.197744e+00   1.258274e-01
  7.730431e-02    2.215901e+00   1.260622e-01
  7.767342e-02    2.360899e+00   1.297508e-01
  7.804254e-02    2.420315e+00   1.314169e-01
  7.841166e-02    2.427291e+00   1.309893e-01
  7.878077e-02    2.413779e+00   1.306313e-01
  7.914989e-02    2.392529e+00   1.296708e-01
  7.951900e-02    2.332651e+00   1.277806e-01
  7.988812e-02    2.191504e+00   1.237964e-01
  8.025723e-02    2.256745e+00   1.251401e-01
  8.062635e-02    2.341586e+00   1.274771e-01
  8.099546e-02    2.118140e+00   1.208080e-01
  8.136458e-02    2.064805e+00   1.191260e-01
  8.173369e-02    2.118050e+00   1.205064e-01
  8.210281e-02    2.158388e+00   1.212766e-01
  8.247192e-02    2.201372e+00   1.224844e-01
  8.284104e-02    2.149714e+00   1.205264e-01
  8.321015e-02    2.031214e+00   1.170962e-01
  8.357927e-02    1.907271e+00   1.132512e-01
  8.394838e-02    2.028473e+00   1.165269e-01
  8.431750e-02    2.091756e+00   1.182688e-01
  8.468661e-02    2.038536e+00   1.163193e-01
  8.505573e-02    2.008996e+00   1.154328e-01
  8.542484e-02    2.008430e+00   1.151127e-01
  8.579396e-02    1.972961e+00   1.139159e-01
  8.616307e-02    1.913444e+00   1.120704e-01
  8.653219e-02    1.903319e+00   1.114044e-01
  8.690130e-02    1.905832e+00   1.114746e-01
  8.727042e-02    1.962576e+00   1.127183e-01
  8.763953e-02    2.012804e+00   1.140709e-01
  8.800865e-02    1.980271e+00   1.129756e-01
  8.837776e-02    1.965173e+00   1.122193e-01
  8.874688e-02    1.967987e+00   1.123348e-01
  8.911599e-02    1.892623e+00   1.096638e-01
  8.948511e-02    1.863507e+00   1.088320e-01
  8.985422e-02    1.962660e+00   1.114653e-01
  9.022334e-02    2.003242e+00   1.123370e-01
  9.059245e-02    1.966121e+00   1.113143e-01
  9.096157e-02    1.872322e+00   1.081327e-01
  9.133068e-02    1.884331e+00   1.085204e-01
  9.169980e-02    1.768559e+00   1.048811e-01
  9.206891e-02    1.680416e+00   1.020271e-01
  9.243803e-02    1.760276e+00   1.044054e-01
  9.280714e-02    1.781736e+00   1.046180e-01
  9.317626e-02    1.822547e+00   1.058517e-01
  9.354537e-02    1.811867e+00   1.052309e-01
  9.391449e-02    1.777958e+00   1.040832e-01
  9.428360e-02    1.886443e+00   1.071541e-01
  9.465272e-02    1.838146e+00   1.054061e-01
  9.502183e-02    1.710093e+00   1.017154e-01
  9.539095e-02    1.596862e+00   9.793209e-02
  9.576006e-02    1.644740e+00   9.929955e-02
  9.612918e-02    1.806326e+00   1.039656e-01
  9.649829e-02    1.878748e+00   1.057162e-01
  9.686741e-02    1.839307e+00   1.046512e-01
  9.723653e-02    1.737668e+00   1.039598e-01
  9.760564e-02    1.682104e+00   1.037579e-01
  9.797476e-02    1.677459e+00   1.044291e-01
  9.834387e-02    1.680112e+00   1.050788e-01
  9.871299e-02    1.717150e+00   1.068720e-01
  9.908210e-02    1.683685e+00   1.061546e-01
  9.945122e-02    1.618881e+00   1.045661e-01
  9.982033e-02    1.580846e+00   1.036904e-01
  1.001894e-01    1.623303e+00   1.053839e-01
  1.005586e-01    1.586674e+00   1.045598e-01
  1.009277e-01    1.606477e+00   1.054167e-01
  1.012968e-01    1.634497e+00   1.066837e-01
  1.016659e-01    1.665356e+00   1.078871e-01
  1.020350e-01    1.634155e+00   1.071433e-01
  1.024041e-01    1.576303e+00   1.054696e-01
  1.027733e-01    1.539553e+00   1.044122e-01
  1.031424e-01    1.556691e+00   1.052841e-01
  1.035115e-01    1.496365e+00   1.033038e-01
  1.038806e-01    1.457555e+00   1.022056e-01
  1.042497e-01    1.538749e+00   1.051841e-01
  1.046188e-01    1.505917e+00   1.042113e-01
  1.049879e-01    1.463900e+00   1.029822e-01
  1.053571e-01    1.433307e+00   1.019456e-01
  1.057262e-01    1.490671e+00   1.042196e-01
  1.060953e-01    1.544519e+00   1.061544e-01
  1.064644e-01    1.527132e+00   1.057566e-01
  1.068335e-01    1.550071e+00   1.066942e-01
  1.072026e-01    1.641134e+00   1.098737e-01
  1.075717e-01    1.625720e+00   1.095879e-01
  1.079409e-01    1.573221e+00   1.078061e-01
  1.083100e-01    1.496170e+00   1.053652e-01
  1.086791e-01    1.517715e+00   1.062103e-01
  1.090482e-01    1.544955e+00   1.072307e-01
  1.094173e-01    1.472636e+00   1.048371e-01
  1.097864e-01    1.426865e+00   9.967457e-02
  1.101556e-01    1.432232e+00   9.854348e-02
  1.105247e-01    1.414193e+00   9.700421e-02
  1.108938e-01    1.441628e+00   9.717770e-02
  1.112629e-01    1.495007e+00   9.852087e-02
  1.116320e-01    1.399783e+00   9.453871e-02
  1.120011e-01    1.393207e+00   9.403937e-02
  1.123702e-01    1.505475e+00   9.725675e-02
  1.127394e-01    1.523230e+00   9.740798e-02
  1.131085e-01    1.488889e+00   9.606696e-02
  1.134776e-01    1.471724e+00   9.492460e-02
  1.138467e-01    1.478675e+00   9.500426e-02
  1.142158e-01    1.484006e+00   9.475224e-02
  1.145849e-01    1.477887e+00   9.428442e-02
  1.149540e-01    1.423976e+00   9.234071e-02
  1.153232e-01    1.395648e+00   9.098857e-02
  1.156923e-01    1.421602e+00   9.175973e-02
  1.160614e-01    1.387157e+00   9.023783e-02
  1.164305e-01    1.316138e+00   8.772104e-02
  1.167996e-01    1.390355e+00   8.996239e-02
  1.171687e-01    1.494864e+00   9.292802e-02
  1.175379e-01    1.477586e+00   9.235060e-02
  1.179070e-01    1.398600e+00   8.940951e-02
  1.182761e-01    1.394794e+00   8.920707e-02
  1.186452e-01    1.348075e+00   8.748123e-02
  1.190143e-01    1.319413e+00   8.628532e-02
  1.193834e-01    1.338462e+00   8.686504e-02
  1.197525e-01    1.329876e+00   8.619286e-02
  1.201217e-01    1.302526e+00   8.524381e-02
  1.204908e-01    1.302909e+00   8.504205e-02
  1.208599e-01    1.399888e+00   8.792408e-02
  1.212290e-01    1.397940e+00   8.780782e-02
  1.215981e-01    1.307193e+00   8.457330e-02
  1.219672e-01    1.278599e+00   8.359902e-02
  1.223364e-01    1.327834e+00   8.495031e-02
  1.227055e-01    1.359298e+00   8.578735e-02
  1.230746e-01    1.362339e+00   8.579998e-02
  1.234437e-01    1.368086e+00   8.567702e-02
  1.238128e-01    1.382066e+00   8.610187e-02
  1.241819e-01    1.363417e+00   8.523338e-02
  1.245510e-01    1.397857e+00   8.617198e-02
  1.249202e-01    1.394865e+00   8.598056e-02
  1.252893e-01    1.355268e+00   8.450091e-02
  1.256584e-01    1.335171e+00   8.387989e-02
  1.260275e-01    1.329072e+00   8.335477e-02
  1.263966e-01    1.319876e+00   8.300038e-02
  1.267657e-01    1.347618e+00   8.374182e-02
  1.271348e-01    1.394335e+00   8.496977e-02
  1.275040e-01    1.435560e+00   8.619225e-02
  1.278731e-01    1.365092e+00   8.375470e-02
  1.282422e-01    1.308973e+00   8.196275e-02
  1.286113e-01    1.331785e+00   8.251073e-02
  1.289804e-01    1.343342e+00   8.270033e-02
  1.293495e-01    1.296590e+00   8.119657e-02
  1.297187e-01    1.288483e+00   8.070093e-02
  1.300878e-01    1.348060e+00   8.250489e-02
  1.304569e-01    1.371990e+00   8.304566e-02
  1.308260e-01    1.251536e+00   7.919287e-02
  1.311951e-01    1.213462e+00   7.790186e-02
  1.315642e-01    1.316080e+00   8.091617e-02
  1.319333e-01    1.362141e+00   8.228785e-02
  1.323025e-01    1.307676e+00   8.039510e-02
  1.326716e-01    1.274812e+00   7.930181e-02
  1.330407e-01    1.266598e+00   7.894842e-02
  1.334098e-01    1.284931e+00   7.934130e-02
  1.337789e-01    1.399590e+00   8.277278e-02
  1.341480e-01    1.409833e+00   8.282020e-02
  1.345171e-01    1.371488e+00   8.163089e-02
  1.348863e-01    1.395440e+00   8.220744e-02
  1.352554e-01    1.391924e+00   8.196151e-02
  1.356245e-01    1.417320e+00   8.265449e-02
  1.359936e-01    1.454306e+00   8.350076e-02
  1.363627e-01    1.409090e+00   8.214102e-02
  1.367318e-01    1.359132e+00   8.051380e-02
  1.371010e-01    1.370090e+00   8.072232e-02
  1.374701e-01    1.384049e+00   8.105330e-02
  1.378392e-01    1.425703e+00   8.208650e-02
  1.382083e-01    1.498923e+00   8.412072e-02
  1.385774e-01    1.519102e+00   8.448733e-02
  1.389465e-01    1.575128e+00   8.594129e-02
  1.393156e-01    1.612086e+00   8.682452e-02
  1.396848e-01    1.657502e+00   8.787883e-02
  1.400539e-01    1.806418e+00   9.171442e-02
  1.404230e-01    2.024167e+00   9.680111e-02
  1.407921e-01    2.330383e+00   1.038106e-01
  1.411612e-01    2.834591e+00   1.143052e-01
  1.415303e-01    3.461465e+00   1.261162e-01
  1.418995e-01    4.122682e+00   1.375796e-01
  1.422686e-01    4.663979e+00   1.459319e-01
  1.426377e-01    4.970041e+00   1.505806e-01
  1.430068e-01    5.193865e+00   1.536382e-01
  1.433759e-01    5.080540e+00   1.517659e-01
  1.437450e-01    4.842029e+00   1.480590e-01
  1.441141e-01    4.539901e+00   1.430276e-01
  1.444833e-01    4.320676e+00   1.394654e-01
  1.448524e-01    4.147589e+00   1.363366e-01
  1.452215e-01    4.024686e+00   1.341817e-01
  1.455906e-01    4.004393e+00   1.337096e-01
  1.459597e-01    4.037928e+00   1.340055e-01
  1.463288e-01    4.158343e+00   1.359433e-01
  1.466979e-01    4.218402e+00   1.365557e-01
  1.470671e-01    4.241555e+00   1.368766e-01
  1.474362e-01    4.284515e+00   1.373779e-01
  1.478053e-01    4.470545e+00   1.401002e-01
  1.481744e-01    4.862690e+00   1.460674e-01
  1.485435e-01    5.653654e+00   1.570108e-01
  1.489126e-01    6.638550e+00   1.701559e-01
  1.492818e-01    8.041934e+00   1.869490e-01
  1.496509e-01    1.014095e+01   2.096806e-01
  1.500200e-01    1.251581e+01   2.328038e-01
  1.503891e-01    1.481010e+01   2.525750e-01
  1.507582e-01    1.688778e+01   2.697033e-01
  1.511273e-01    1.886100e+01   2.844092e-01
  1.514964e-01    2.004943e+01   2.929849e-01
  1.518656e-01    2.041596e+01   2.953798e-01
  1.522347e-01    1.977069e+01   2.900691e-01
  1.526038e-01    1.886515e+01   2.833202e-01
  1.529729e-01    1.808228e+01   2.766994e-01
  1.533420e-01    1.730609e+01   2.705277e-01
  1.537111e-01    1.711803e+01   2.687725e-01
  1.540802e-01    1.813743e+01   2.761354e-01
  1.544494e-01    2.174632e+01   3.023541e-01
  1.548185e-01    3.150204e+01   3.628540e-01
  1.551876e-01    5.258792e+01   4.688601e-01
  1.555567e-01    9.531138e+01   6.302219e-01
  1.559258e-01    1.579903e+02   8.100680e-01
  1.562949e-01    2.312580e+02   9.799864e-01
  1.566641e-01    3.046745e+02   1.121551e+00
  1.570332e-01    3.639668e+02   1.226240e+00
  1.574023e-01    4.070238e+02   1.294347e+00
  1.577714e-01    4.189804e+02   1.311350e+00
  1.581405e-01    4.067082e+02   1.291662e+00
  1.585096e-01    3.736991e+02   1.234975e+00
  1.588787e-01    3.323015e+02   1.164749e+00
  1.592479e-01    2.844259e+02   1.075306e+00
  1.596170e-01    2.420786e+02   9.911749e-01
  1.599861e-01    2.011441e+02   9.028958e-01
  1.603552e-01    1.659451e+02   8.181739e-01
  1.607243e-01    1.313746e+02   7.280942e-01
  1.610934e-01    9.284309e+01   6.107206e-01
  1.614626e-01    5.985273e+01   4.900841e-01
  1.618317e-01    3.318348e+01   3.644958e-01
  1.622008e-01    1.814499e+01   2.689930e-01
  1.625699e-01    1.043816e+01   2.041254e-01
  1.629390e-01    6.535108e+00   1.610504e-01
  1.633081e-01    4.996923e+00   1.407990e-01
  1.636772e-01    4.105661e+00   1.274436e-01
  1.640464e-01    3.564965e+00   1.185926e-01
  1.644155e-01    3.202219e+00   1.124036e-01
  1.647846e-01    2.942694e+00   1.074434e-01
  1.651537e-01    2.758147e+00   1.040268e-01
  1.655228e-01    2.534172e+00   9.955921e-02
  1.658919e-01    2.294894e+00   9.461822e-02
  1.662610e-01    2.138816e+00   9.132168e-02
  1.666302e-01    2.096868e+00   9.021005e-02
  1.669993e-01    1.991864e+00   8.792087e-02
  1.673684e-01    1.893813e+00   8.556250e-02
  1.677375e-01    1.819336e+00   8.378354e-02
  1.681066e-01    1.748285e+00   8.210904e-02
  1.684757e-01    1.674740e+00   8.017336e-02
  1.688449e-01    1.601632e+00   7.841006e-02
  1.692140e-01    1.599566e+00   7.819034e-02
  1.695831e-01    1.584998e+00   7.779732e-02
  1.699522e-01    1.599963e+00   7.809723e-02
  1.703213e-01    1.561987e+00   7.699455e-02
  1.706904e-01    1.487110e+00   7.517540e-02
  1.710595e-01    1.500894e+00   7.531199e-02
  1.714287e-01    1.543052e+00   7.634813e-02
  1.717978e-01    1.573990e+00   7.701821e-02
  1.721669e-01    1.550890e+00   7.633120e-02
  1.725360e-01    1.493858e+00   7.492808e-02
  1.729051e-01    1.466758e+00   7.404680e-02
  1.732742e-01    1.390971e+00   7.211574e-02
  1.736434e-01    1.301500e+00   6.964924e-02
  1.740125e-01    1.311091e+00   6.981030e-02
  1.743816e-01    1.383409e+00   7.171235e-02
  1.747507e-01    1.388432e+00   7.167939e-02
  1.751198e-01    1.346656e+00   7.057622e-02
  1.754889e-01    1.332711e+00   7.008837e-02
  1.758580e-01    1.354241e+00   7.060142e-02
  1.762272e-01    1.320415e+00   6.968265e-02
  1.765963e-01    1.313039e+00   6.932776e-02
  1.769654e-01    1.328920e+00   6.976160e-02
  1.773345e-01    1.321831e+00   6.943887e-02
  1.777036e-01    1.304581e+00   6.893400e-02
  1.780727e-01    1.318601e+00   6.924419e-02
  1.784418e-01    1.316847e+00   6.909077e-02
  1.788110e-01    1.288299e+00   6.835021e-02
  1.791801e-01    1.281757e+00   6.799722e-02
  1.795492e-01    1.259777e+00   6.739644e-02
  1.799183e-01    1.224218e+00   6.637788e-02
  1.802874e-01    1.283501e+00   6.786081e-02
  1.806565e-01    1.308972e+00   6.853367e-02
  1.810257e-01    1.269619e+00   6.733725e-02
  1.813948e-01    1.303127e+00   6.820364e-02
  1.817639e-01    1.440005e+00   7.160933e-02
  1.821330e-01    1.532242e+00   7.378551e-02
  1.825021e-01    1.551306e+00   7.421365e-02
  1.828712e-01    1.548809e+00   7.399757e-02
  1.832403e-01    1.559181e+00   7.425161e-02
  1.836095e-01    1.543698e+00   7.376043e-02
  1.839786e-01    1.486144e+00   7.229086e-02
  1.843477e-01    1.386592e+00   6.980949e-02
  1.847168e-01    1.303108e+00   6.755818e-02
  1.850859e-01    1.360846e+00   6.901669e-02
  1.854550e-01    1.405569e+00   7.001087e-02
  1.858241e-01    1.362355e+00   6.889416e-02
  1.861933e-01    1.356107e+00   6.868975e-02
  1.865624e-01    1.463605e+00   7.122521e-02
  1.869315e-01    1.673838e+00   7.619392e-02
  1.873006e-01    1.985493e+00   8.279519e-02
  1.876697e-01    2.546054e+00   9.370837e-02
  1.880388e-01    3.308298e+00   1.067413e-01
  1.884080e-01    4.391870e+00   1.228171e-01
  1.887771e-01    5.543197e+00   1.379516e-01
  1.891462e-01    6.610008e+00   1.503291e-01
  1.895153e-01    7.666475e+00   1.618520e-01
  1.898844e-01    8.397796e+00   1.692095e-01
  1.902535e-01    8.945978e+00   1.744523e-01
  1.906226e-01    9.228837e+00   1.771148e-01
  1.909918e-01    8.640633e+00   1.710594e-01
  1.913609e-01    7.732984e+00   1.617872e-01
  1.917300e-01    6.843984e+00   1.520123e-01
  1.920991e-01    6.071379e+00   1.430228e-01
  1.924682e-01    5.116792e+00   1.312242e-01
  1.928373e-01    4.252874e+00   1.194766e-01
  1.932065e-01    3.525862e+00   1.087311e-01
  1.935756e-01    2.751435e+00   9.588719e-02
  1.939447e-01    2.196645e+00   8.564570e-02
  1.943138e-01    1.849985e+00   7.852942e-02
  1.946829e-01    1.603654e+00   7.299928e-02
  1.950520e-01    1.398333e+00   6.817280e-02
  1.954211e-01    1.222965e+00   6.363089e-02
  1.957903e-01    1.105340e+00   6.045336e-02
  1.961594e-01    1.077484e+00   5.964225e-02
  1.965285e-01    1.090757e+00   5.994257e-02
  1.968976e-01    1.106260e+00   6.033818e-02
  1.972667e-01    1.048485e+00   5.863549e-02
  1.976358e-01    1.020459e+00   5.783483e-02
  1.980049e-01    1.009931e+00   5.746921e-02
  1.983741e-01    1.007557e+00   5.733474e-02
  1.987432e-01    9.906989e-01   5.683637e-02
  1.991123e-01    9.989859e-01   5.697964e-02
  1.994814e-01    1.004844e+00   5.712095e-02
  1.998505e-01    9.830081e-01   5.643098e-02
  2.002196e-01    9.966595e-01   5.677349e-02
  2.005888e-01    9.860904e-01   5.643348e-02
  2.009579e-01    9.726097e-01   5.596821e-02
  2.013270e-01    9.631585e-01   5.567785e-02
  2.016961e-01    9.409771e-01   5.494944e-02
  2.020652e-01    9.131196e-01   5.410012e-02
  2.024343e-01    8.964216e-01   5.355460e-02
  2.028034e-01    9.133891e-01   5.399310e-02
  2.031726e-01    9.455459e-01   5.493024e-02
  2.035417e-01    8.936011e-01   5.329428e-02
  2.039108e-01    8.779819e-01   5.280791e-02
  2.042799e-01    9.208782e-01   5.404206e-02
  2.046490e-01    9.123973e-01   5.372247e-02
  2.050181e-01    9.001865e-01   5.333867e-02
  2.053872e-01    8.995479e-01   5.325012e-02
  2.057564e-01    9.216131e-01   5.386682e-02
  2.061255e-01    8.966886e-01   5.306715e-02
  2.064946e-01    8.923088e-01   5.290826e-02
  2.068637e-01    9.430908e-01   5.435296e-02
  2.072328e-01    9.476195e-01   5.439598e-02
  2.076019e-01    9.487103e-01   5.442591e-02
  2.079711e-01    9.267898e-01   5.371708e-02
  2.083402e-01    9.070845e-01   5.309438e-02
  2.087093e-01    9.099788e-01   5.315501e-02
  2.090784e-01    8.897746e-01   5.249602e-02
  2.094475e-01    9.240596e-01   5.346559e-02
  2.098166e-01    9.572492e-01   5.434740e-02
  2.101857e-01    9.393401e-01   5.381222e-02
  2.105549e-01    9.406847e-01   5.378950e-02
  2.109240e-01    9.142942e-01   5.298335e-02
  2.112931e-01    8.702264e-01   5.167933e-02
  2.116622e-01    8.709127e-01   5.159626e-02
  2.120313e-01    9.123981e-01   5.280567e-02
  2.124004e-01    9.320816e-01   5.331590e-02
  2.127696e-01    9.223218e-01   5.298316e-02
  2.131387e-01    9.314279e-01   5.322546e-02
  2.135078e-01    9.628984e-01   5.403098e-02
  2.138769e-01    9.314759e-01   5.312674e-02
  2.142460e-01    8.573188e-01   5.090667e-02
  2.146151e-01    8.242134e-01   4.987745e-02
  2.149842e-01    8.113181e-01   4.945404e-02
  2.153534e-01    8.091883e-01   4.932592e-02
  2.157225e-01    8.407985e-01   5.026242e-02
  2.160916e-01    8.626607e-01   5.084087e-02
  2.164607e-01    8.710297e-01   5.106393e-02
  2.168298e-01    8.739272e-01   5.110142e-02
  2.171989e-01    8.893149e-01   5.149247e-02
  2.175680e-01    9.196423e-01   5.235490e-02
  2.179372e-01    8.915730e-01   5.145981e-02
  2.183063e-01    8.451505e-01   5.008554e-02
  2.186754e-01    8.637244e-01   5.059288e-02
  2.190445e-01    8.787640e-01   5.097156e-02
  2.194136e-01    8.597836e-01   5.041047e-02
  2.197827e-01    8.599331e-01   5.032974e-02
  2.201519e-01    8.500795e-01   5.002070e-02
  2.205210e-01    8.378129e-01   4.960760e-02
  2.208901e-01    8.114710e-01   4.879325e-02
  2.212592e-01    8.297292e-01   4.930471e-02
  2.216283e-01    8.208377e-01   4.896406e-02
  2.219974e-01    7.930647e-01   4.813044e-02
  2.223665e-01    8.138793e-01   4.868270e-02
  2.227357e-01    8.290605e-01   4.910892e-02
  2.231048e-01    8.365922e-01   4.931139e-02
  2.234739e-01    8.619084e-01   4.996824e-02
  2.238430e-01    8.774034e-01   5.041115e-02
  2.242121e-01    8.897250e-01   5.069981e-02
  2.245812e-01    8.863379e-01   5.056800e-02
  2.249503e-01    8.348805e-01   4.904624e-02
  2.253195e-01    7.940248e-01   4.777940e-02
  2.256886e-01    8.413951e-01   4.916375e-02
  2.260577e-01    8.510333e-01   4.937320e-02
  2.264268e-01    8.306671e-01   4.876723e-02
  2.267959e-01    8.562305e-01   4.945725e-02
  2.271650e-01    8.677840e-01   4.974792e-02
  2.275342e-01    8.874308e-01   5.030100e-02
  2.279033e-01    8.847735e-01   5.012657e-02
  2.282724e-01    8.949245e-01   5.041573e-02
  2.286415e-01    8.841587e-01   5.005519e-02
  2.290106e-01    8.471056e-01   4.941036e-02
  2.293797e-01    8.005821e-01   4.873236e-02
  2.297488e-01    8.200452e-01   4.961681e-02
  2.301180e-01    8.277160e-01   5.012341e-02
  2.304871e-01    8.630630e-01   5.137366e-02
  2.308562e-01    9.096127e-01   5.294949e-02
  2.312253e-01    8.792731e-01   5.223071e-02
  2.315944e-01    8.607217e-01   5.180527e-02
  2.319635e-01    8.701055e-01   5.225388e-02
  2.323327e-01    8.581836e-01   5.199843e-02
  2.327018e-01    8.464294e-01   5.178145e-02
  2.330709e-01    8.575780e-01   5.223281e-02
  2.334400e-01    8.604473e-01   5.242199e-02
  2.338091e-01    8.804621e-01   5.315192e-02
  2.341782e-01    8.914485e-01   5.354520e-02
  2.345473e-01    8.822028e-01   5.340506e-02
  2.349165e-01    8.568994e-01   5.270295e-02
  2.352856e-01    8.766574e-01   5.338646e-02
  2.356547e-01    8.860430e-01   5.380224e-02
  2.360238e-01    8.874072e-01   5.386440e-02
  2.363929e-01    8.904625e-01   5.407579e-02
  2.367620e-01    8.696089e-01   5.351327e-02
  2.371311e-01    8.271244e-01   5.224777e-02
  2.375003e-01    8.287763e-01   5.239573e-02
  2.378694e-01    8.604751e-01   5.342942e-02
  2.382385e-01    8.733045e-01   5.391488e-02
  2.386076e-01    8.417825e-01   5.297912e-02
  2.389767e-01    8.272046e-01   5.260548e-02
  2.393458e-01    8.541617e-01   5.351244e-02
  2.397150e-01    8.492612e-01   5.339594e-02
  2.400841e-01    8.416407e-01   5.325821e-02
  2.404532e-01    8.673639e-01   5.407230e-02
  2.408223e-01    8.494043e-01   5.360555e-02
  2.411914e-01    8.123096e-01   5.247989e-02
  2.415605e-01    8.511625e-01   5.373231e-02
  2.419296e-01    8.982505e-01   5.530785e-02
  2.422988e-01    9.061947e-01   5.556324e-02
  2.426679e-01    8.928483e-01   5.522378e-02
  2.430370e-01    8.497899e-01   5.393731e-02
  2.434061e-01    8.310344e-01   5.336521e-02
  2.437752e-01    8.527268e-01   5.413046e-02
  2.441443e-01    8.409109e-01   5.377030e-02
  2.445134e-01    8.399913e-01   5.381856e-02
  2.448826e-01    8.352007e-01   5.368872e-02
  2.452517e-01    8.991363e-01   5.576266e-02
  2.456208e-01    9.239616e-01   5.659481e-02
  2.459899e-01    8.821854e-01   5.528987e-02
  2.463590e-01    8.825060e-01   5.540045e-02
  2.467281e-01    9.436014e-01   5.729145e-02
  2.470973e-01    9.301198e-01   5.694072e-02
  2.474664e-01    9.275699e-01   5.692687e-02
  2.478355e-01    9.014429e-01   5.610727e-02
  2.482046e-01    8.697835e-01   5.520667e-02
  2.485737e-01    8.499168e-01   5.458085e-02
  2.489428e-01    7.931481e-01   5.276964e-02
  2.493119e-01    7.786869e-01   5.234361e-02
  2.496811e-01    8.163168e-01   5.359158e-02
  2.500502e-01    7.906803e-01   5.281944e-02
  2.504193e-01    8.024997e-01   5.320877e-02
  2.507884e-01    8.365937e-01   5.439312e-02
  2.511575e-01    8.862516e-01   5.601518e-02
  2.515266e-01    9.079316e-01   5.671323e-02
  2.518958e-01    8.934962e-01   5.633299e-02
  2.522649e-01    8.564324e-01   5.514057e-02
  2.526340e-01    8.217586e-01   5.408122e-02
  2.530031e-01    8.174450e-01   5.395839e-02
  2.533722e-01    8.115298e-01   5.379013e-02
  2.537413e-01    8.094911e-01   5.378404e-02
  2.541104e-01    8.133258e-01   5.388964e-02
  2.544796e-01    8.032017e-01   5.363156e-02
  2.548487e-01    7.834658e-01   5.297278e-02
  2.552178e-01    7.574397e-01   5.212142e-02
  2.555869e-01    7.497025e-01   5.190657e-02
  2.559560e-01    7.881514e-01   5.318873e-02
  2.563251e-01    8.245274e-01   5.449952e-02
  2.566942e-01    8.386932e-01   5.495475e-02
  2.570634e-01    8.617401e-01   5.573531e-02
  2.574325e-01    8.619009e-01   5.580918e-02
  2.578016e-01    8.843988e-01   5.649990e-02
  2.581707e-01    8.955691e-01   5.693813e-02
  2.585398e-01    8.084575e-01   5.409797e-02
  2.589089e-01    7.819322e-01   5.323162e-02
  2.592781e-01    8.120787e-01   5.429790e-02
  2.596472e-01    8.166724e-01   5.444126e-02
  2.600163e-01    8.501486e-01   5.560608e-02
  2.603854e-01    8.549485e-01   5.576145e-02
  2.607545e-01    7.895942e-01   5.363519e-02
  2.611236e-01    7.680886e-01   5.291387e-02
  2.614927e-01    7.761126e-01   5.320603e-02
  2.618619e-01    7.481868e-01   5.229550e-02
  2.622310e-01    7.583401e-01   5.261889e-02
  2.626001e-01    8.202909e-01   5.480879e-02
  2.629692e-01    8.581886e-01   5.605335e-02
  2.633383e-01    8.507844e-01   5.582064e-02
  2.637074e-01    8.181366e-01   5.482548e-02
  2.640765e-01    8.008199e-01   5.418019e-02
  2.644457e-01    8.056583e-01   5.442850e-02
  2.648148e-01    8.051301e-01   5.441978e-02
  2.651839e-01    8.090532e-01   5.454449e-02
  2.655530e-01    7.853187e-01   5.381600e-02
  2.659221e-01    7.541721e-01   5.270284e-02
  2.662912e-01    7.664508e-01   5.318813e-02
  2.666604e-01    8.059534e-01   5.455492e-02
  2.670295e-01    7.935374e-01   5.414658e-02
  2.673986e-01    8.125309e-01   5.483070e-02
  2.677677e-01    8.560410e-01   5.626480e-02
  2.681368e-01    8.860182e-01   5.730652e-02
  2.685059e-01    8.684264e-01   5.672287e-02
  2.688750e-01    8.289995e-01   5.546447e-02
  2.692442e-01    8.422254e-01   5.592144e-02
  2.696133e-01    8.186458e-01   5.512738e-02
  2.699824e-01    7.895300e-01   5.421378e-02
  2.703515e-01    7.729663e-01   5.359389e-02
  2.707206e-01    7.401246e-01   5.250370e-02
  2.710897e-01    7.525874e-01   5.296487e-02
  2.714589e-01    8.199878e-01   5.526181e-02
  2.718280e-01    8.533965e-01   5.646743e-02
  2.721971e-01    8.335775e-01   5.576090e-02
  2.725662e-01    8.069123e-01   5.491419e-02
  2.729353e-01    7.978035e-01   5.462297e-02
  2.733044e-01    8.043680e-01   5.483502e-02
  2.736735e-01    8.597409e-01   5.677025e-02
  2.740427e-01    8.438125e-01   5.619350e-02
  2.744118e-01    8.105819e-01   5.513211e-02
  2.747809e-01    8.574572e-01   5.671342e-02
  2.751500e-01    8.643950e-01   5.694980e-02
  2.755191e-01    8.249859e-01   5.568804e-02
  2.758882e-01    7.988150e-01   5.476245e-02
  2.762573e-01    7.531092e-01   5.323942e-02
  2.766265e-01    7.609209e-01   5.350141e-02
  2.769956e-01    8.062972e-01   5.509414e-02
  2.773647e-01    8.343289e-01   5.608874e-02
  2.777338e-01    8.217313e-01   5.563087e-02
  2.781029e-01    8.167160e-01   5.552986e-02
  2.784720e-01    8.070443e-01   5.517904e-02
  2.788412e-01    7.941391e-01   5.476249e-02
  2.792103e-01    8.552514e-01   5.686529e-02
  2.795794e-01    8.942700e-01   5.812414e-02
  2.799485e-01    8.639878e-01   5.720212e-02
  2.803176e-01    8.261548e-01   5.589967e-02
  2.806867e-01    7.678633e-01   5.393613e-02
  2.810558e-01    7.753896e-01   5.421597e-02
  2.814250e-01    8.148381e-01   5.556277e-02
  2.817941e-01    8.483216e-01   5.676814e-02
  2.821632e-01    8.050028e-01   5.524926e-02
  2.825323e-01    8.006844e-01   5.516095e-02
  2.829014e-01    8.475097e-01   5.675193e-02
  2.832705e-01    8.710620e-01   5.752402e-02
  2.836396e-01    8.560925e-01   5.711467e-02
  2.840088e-01    8.714603e-01   5.755566e-02
  2.843779e-01    9.074660e-01   5.879567e-02
  2.847470e-01    8.909011e-01   5.827110e-02
  2.851161e-01    9.010763e-01   5.858721e-02
  2.854852e-01    9.639374e-01   6.067172e-02
  2.858543e-01    9.638491e-01   6.061855e-02
  2.862235e-01    9.904996e-01   6.150686e-02
  2.865926e-01    1.042020e+00   6.309579e-02
  2.869617e-01    1.021919e+00   6.247863e-02
  2.873308e-01    9.712785e-01   6.095909e-02
  2.876999e-01    9.425946e-01   6.003747e-02
  2.880690e-01    9.174789e-01   5.927347e-02
  2.884381e-01    8.882477e-01   5.830593e-02
  2.888073e-01    8.493613e-01   5.704857e-02
  2.891764e-01    8.625647e-01   5.750845e-02
  2.895455e-01    8.729374e-01   5.783746e-02
  2.899146e-01    8.566036e-01   5.735811e-02
  2.902837e-01    8.520770e-01   5.715808e-02
  2.906528e-01    8.986866e-01   5.875938e-02
  2.910220e-01    9.181162e-01   5.939946e-02
  2.913911e-01    8.892913e-01   5.843263e-02
  2.917602e-01    8.715351e-01   5.794138e-02
  2.921293e-01    8.244765e-01   5.628089e-02
  2.924984e-01    8.240424e-01   5.632186e-02
  2.928675e-01    8.808577e-01   5.825687e-02
  2.932366e-01    9.231099e-01   5.959596e-02
  2.936058e-01    9.458623e-01   6.042748e-02
  2.939749e-01    9.385684e-01   6.012604e-02
  2.943440e-01    8.754756e-01   5.811023e-02
  2.947131e-01    8.348000e-01   5.677411e-02
  2.950822e-01    8.010103e-01   5.558427e-02
  2.954513e-01    8.030514e-01   5.572160e-02
  2.958204e-01    8.434491e-01   5.707161e-02
  2.961896e-01    8.602926e-01   5.766589e-02
  2.965587e-01    8.671722e-01   5.790872e-02
  2.969278e-01    9.015647e-01   5.904984e-02
  2.972969e-01    8.896848e-01   5.869072e-02
  2.976660e-01    8.536916e-01   5.747521e-02
  2.980351e-01    8.937578e-01   5.903427e-02
  2.984043e-01    9.056630e-01   6.204661e-02
  2.987734e-01    8.887399e-01   6.339096e-02
  2.991425e-01    8.864297e-01   6.448553e-02
  2.995116e-01    9.244893e-01   6.652771e-02
  2.998807e-01    9.269410e-01   6.721247e-02
  3.002498e-01    9.803122e-01   6.963670e-02
  3.006189e-01    9.722697e-01   6.991064e-02
  3.009881e-01    9.878494e-01   7.096197e-02
  3.013572e-01    1.019177e+00   7.254017e-02
  3.017263e-01    1.062660e+00   7.458438e-02
  3.020954e-01    1.210865e+00   8.009280e-02
  3.024645e-01    1.339133e+00   8.474508e-02
  3.028336e-01    1.477802e+00   8.957503e-02
  3.032027e-01    1.537655e+00   9.185544e-02
  3.035719e-01    1.561146e+00   9.312667e-02
  3.039410e-01    1.556679e+00   9.350540e-02
  3.043101e-01    1.509799e+00   9.254585e-02
  3.046792e-01    1.446675e+00   9.111289e-02
  3.050483e-01    1.426478e+00   9.094383e-02
  3.054174e-01    1.365804e+00   8.943813e-02
  3.057866e-01    1.250840e+00   8.604808e-02
  3.061557e-01    1.104991e+00   8.126035e-02
  3.065248e-01    9.827573e-01   7.705593e-02
  3.068939e-01    9.743352e-01   7.710533e-02
  3.072630e-01    1.013762e+00   7.901880e-02
  3.076321e-01    1.004455e+00   7.906225e-02
  3.080012e-01    9.871161e-01   7.875159e-02
  3.083704e-01    9.185715e-01   7.632669e-02
  3.087395e-01    9.566897e-01   7.828073e-02
  3.091086e-01    9.955264e-01   8.021573e-02
  3.094777e-01    1.000789e+00   8.082919e-02
  3.098468e-01    1.014126e+00   8.176750e-02
  3.102159e-01    9.879010e-01   8.107173e-02
  3.105851e-01    1.033154e+00   8.330654e-02
  3.109542e-01    1.124595e+00   8.731873e-02
  3.113233e-01    1.193797e+00   9.038048e-02
  3.116924e-01    1.133300e+00   8.847525e-02
  3.120615e-01    1.104973e+00   8.776614e-02
  3.124306e-01    1.146873e+00   8.983195e-02
  3.127997e-01    1.305279e+00   9.629766e-02
  3.131689e-01    1.599140e+00   1.070868e-01
  3.135380e-01    2.045905e+00   1.214593e-01
  3.139071e-01    2.830752e+00   1.430088e-01
  3.142762e-01    4.650796e+00   1.833151e-01
  3.146453e-01    7.660665e+00   2.353121e-01
  3.150144e-01    1.119316e+01   2.846080e-01
  3.153835e-01    1.459928e+01   3.250103e-01
  3.157527e-01    1.802937e+01   3.613798e-01
  3.161218e-01    2.033468e+01   3.839732e-01
  3.164909e-01    2.054669e+01   3.858645e-01
  3.168600e-01    1.963078e+01   3.773909e-01
  3.172291e-01    1.809536e+01   3.624036e-01
  3.175982e-01    1.644801e+01   3.460711e-01
  3.179674e-01    1.441587e+01   3.252444e-01
  3.183365e-01    1.184343e+01   2.961451e-01
  3.187056e-01    9.172841e+00   2.617114e-01
  3.190747e-01    6.959084e+00   2.288938e-01
  3.194438e-01    5.066280e+00   1.961663e-01
  3.198129e-01    3.574364e+00   1.654589e-01
  3.201820e-01    2.432908e+00   1.370732e-01
  3.205512e-01    1.699257e+00   1.150981e-01
  3.209203e-01    1.299657e+00   1.010787e-01
  3.212894e-01    1.120304e+00   9.425534e-02
  3.216585e-01    1.049104e+00   9.160450e-02
  3.220276e-01    1.003898e+00   8.998479e-02
  3.223967e-01    9.898034e-01   8.975431e-02
  3.227658e-01    1.032617e+00   9.206128e-02
  3.231350e-01    1.054524e+00   9.348286e-02
  3.235041e-01    1.033554e+00   9.292940e-02
  3.238732e-01    9.978140e-01   9.172768e-02
  3.242423e-01    9.357563e-01   8.920143e-02
  3.246114e-01    9.035442e-01   8.805566e-02
  3.249805e-01    8.929991e-01   8.791602e-02
  3.253497e-01    8.617676e-01   8.679182e-02
  3.257188e-01    8.778548e-01   8.796647e-02
  3.260879e-01    9.071954e-01   8.984989e-02
  3.264570e-01    8.768688e-01   8.870600e-02
  3.268261e-01    8.890740e-01   8.974985e-02
  3.271952e-01    8.649984e-01   8.891555e-02
  3.275643e-01    8.311683e-01   8.759368e-02
  3.279335e-01    8.438457e-01   8.865850e-02
  3.283026e-01    8.922420e-01   9.157581e-02
  3.286717e-01    8.766999e-01   9.121077e-02
  3.290408e-01    8.444348e-01   8.990869e-02
  3.294099e-01    8.000229e-01   8.795877e-02
  3.297790e-01    7.409498e-01   8.505564e-02
  3.301482e-01    7.103804e-01   8.366573e-02
  3.305173e-01    7.637812e-01   8.718533e-02
  3.308864e-01    8.020630e-01   8.974786e-02
  3.312555e-01    8.009644e-01   9.012204e-02
  3.316246e-01    7.950848e-01   9.026489e-02
  3.319937e-01    8.503681e-01   9.379020e-02
  3.323628e-01    9.057555e-01   9.728489e-02
  3.327320e-01    9.016163e-01   9.753753e-02
  3.331011e-01    8.966956e-01   9.773024e-02
  3.334702e-01    8.869358e-01   9.771278e-02
  3.338393e-01    8.990272e-01   9.890293e-02
  3.342084e-01    8.537925e-01   9.684808e-02
  3.345775e-01    8.447319e-01   9.682855e-02
  3.349466e-01    7.695692e-01   9.290145e-02
  3.353158e-01    7.746449e-01   9.366717e-02
  3.356849e-01    7.919022e-01   9.523418e-02
  3.360540e-01    9.058642e-01   1.024221e-01
  3.364231e-01    9.250565e-01   1.040249e-01
  3.367922e-01    9.016466e-01   1.032245e-01
  3.371613e-01    8.070705e-01   9.819115e-02
  3.375305e-01    7.873224e-01   9.755390e-02
  3.378996e-01    7.872068e-01   9.807447e-02
  3.382687e-01    8.299769e-01   1.012346e-01
  3.386378e-01    9.068992e-01   1.064245e-01
  3.390069e-01    8.835440e-01   1.056280e-01
  3.393760e-01    7.988169e-01   1.010173e-01
  3.397451e-01    7.486737e-01   9.835798e-02
  3.401143e-01    6.882832e-01   9.485537e-02
  3.404834e-01    6.904576e-01   9.555775e-02
  3.408525e-01    7.596957e-01   1.007971e-01
  3.412216e-01    8.407509e-01   1.066783e-01
  3.415907e-01    9.020644e-01   1.111738e-01
  3.419598e-01    9.330311e-01   1.137776e-01
  3.423289e-01    9.500066e-01   1.154780e-01
  3.426981e-01    8.603023e-01   1.105384e-01
  3.430672e-01    8.065645e-01   1.077134e-01
  3.434363e-01    9.315967e-01   1.165053e-01
  3.438054e-01    1.024709e+00   1.229892e-01
  3.441745e-01    1.025288e+00   1.237793e-01
  3.445436e-01    9.425762e-01   1.194179e-01
  3.449128e-01    8.781739e-01   1.160546e-01
  3.452819e-01    8.613699e-01   1.157007e-01
  3.456510e-01    8.456184e-01   1.154108e-01
  3.460201e-01    7.598709e-01   1.101329e-01
  3.463892e-01    7.178969e-01   1.077492e-01
  3.467583e-01    7.605699e-01   1.117302e-01
  3.471274e-01    7.563941e-01   1.121858e-01
  3.474966e-01    8.496785e-01   1.197109e-01
  3.478657e-01    9.493237e-01   1.274338e-01
  3.482348e-01    9.549685e-01   1.287528e-01
  3.486039e-01    8.981480e-01   1.258545e-01
  3.489730e-01    8.223185e-01   1.212844e-01
  3.493421e-01    8.440945e-01   1.237694e-01
  3.497113e-01    9.180331e-01   1.300214e-01
  3.500804e-01    9.991831e-01   1.367203e-01
  3.504495e-01    9.306288e-01   1.330369e-01
  3.508186e-01    7.840697e-01   1.230878e-01
  3.511877e-01    7.136951e-01   1.183428e-01
  3.515568e-01    7.319235e-01   1.207838e-01
  3.519259e-01    7.780604e-01   1.256500e-01
  3.522951e-01    7.669269e-01   1.257813e-01
  3.526642e-01    7.754580e-01   1.275160e-01
  3.530333e-01    7.618821e-01   1.274471e-01
  3.534024e-01    7.022257e-01   1.234356e-01
  3.537715e-01    7.720011e-01   1.306904e-01
  3.541406e-01    8.420909e-01   1.377143e-01
  3.545097e-01    8.372012e-01   1.385319e-01
  3.548789e-01    8.210889e-01   1.384293e-01
  3.552480e-01    8.638819e-01   1.434554e-01
  3.556171e-01    9.063387e-01   1.483593e-01
  3.559862e-01    8.525968e-01   1.452618e-01
  3.563553e-01    8.677818e-01   1.479670e-01
  3.567244e-01    9.171397e-01   1.536952e-01
  3.570936e-01    8.852213e-01   1.526806e-01
  3.574627e-01    8.475892e-01   1.509317e-01
  3.578318e-01    7.672378e-01   1.450998e-01
  3.582009e-01    7.053443e-01   1.406605e-01
  3.585700e-01    7.480540e-01   1.466739e-01
  3.589391e-01    8.672720e-01   1.597081e-01
  3.593082e-01    1.031078e+00   1.761144e-01
  3.596774e-01    1.014932e+00   1.767572e-01
  3.600465e-01    8.050170e-01   1.594656e-01
  3.604156e-01    7.591224e-01   1.568760e-01
  3.607847e-01    9.323664e-01   1.760212e-01
  3.611538e-01    8.753794e-01   1.727305e-01
  3.615229e-01    7.769870e-01   1.649485e-01
  3.618920e-01    8.693289e-01   1.771242e-01
  3.622612e-01    9.573147e-01   1.884346e-01
  3.626303e-01    9.994619e-01   1.952637e-01
  3.629994e-01    9.905428e-01   1.972166e-01
  3.633685e-01    8.463301e-01   1.854987e-01
  3.637376e-01    6.563525e-01   1.658998e-01
  3.641067e-01    7.045294e-01   1.746194e-01
  3.644759e-01    8.281175e-01   1.924268e-01
  3.648450e-01    7.998847e-01   1.927595e-01
  3.652141e-01    6.914405e-01   1.825316e-01
  3.655832e-01    6.059280e-01   1.739917e-01
  3.659523e-01    7.133764e-01   1.924012e-01
  3.663214e-01    8.586943e-01   2.156515e-01
  3.666905e-01    8.706288e-01   2.219872e-01
  3.670597e-01    8.284168e-01   2.211688e-01
  3.674288e-01    8.835832e-01   2.335052e-01
  3.677979e-01    9.209469e-01   2.443313e-01
  3.681670e-01    7.797776e-01   2.310152e-01
  3.685361e-01    6.895527e-01   2.228568e-01
  3.689052e-01    8.828853e-01   2.590331e-01
  3.692744e-01    1.035873e+00   2.890046e-01
  3.696435e-01    1.168134e+00   3.177154e-01
  3.700126e-01    1.101555e+00   3.186363e-01
  3.703817e-01    9.119138e-01   3.000636e-01
  3.707508e-01    7.692091e-01   2.862024e-01
  3.711199e-01    9.320519e-01   3.301727e-01
  3.714890e-01    1.039361e+00   3.642968e-01
  3.718582e-01    1.142189e+00   4.006713e-01
  3.722273e-01    1.299982e+00   4.509922e-01
  3.725964e-01    8.950211e-01   4.018014e-01
  3.729655e-01    7.272251e-01   3.880186e-01
  3.733346e-01    3.906955e-01   3.080335e-01
  3.737037e-01    5.113838e-01   3.875609e-01
  3.740728e-01    7.886890e-01   5.556745e-01
  3.744420e-01    7.881628e-01   6.536436e-01
  3.748111e-01    1.021339e+00   9.479207e-01
  3.751802e-01    2.025616e+00   9.211843e-01
