# == pyFAI calibration ==
# SplineFile: None
# PixelSize: 1.000e-04, 1.000e-04 m
# PONI: 1.637e-01, 1.015e-01 m
# Distance Sample to Detector: 0.711290147293 m
# Rotations: -0.226893 0.000000 0.000000 rad
# 
# == Fit2d calibration ==
# Distance Sample-beamCenter: 730.000 mm
# Center: x=2657.000, y=1637.000 pix
# Tilt: 13.000 deg  TiltPlanRot: 0.000 deg
# 
# Wavelength: 7.09e-10
# Polarization factor: None
# Normalization factor: None
# --> OT-2015-07-01-041-02-3600s.rgr
#       q_nm^-1              I           sigma 
  2.569677e-02    6.969148e+02   4.113201e+00
  2.944203e-02    5.480804e+02   2.300705e+00
  3.318729e-02    4.109196e+02   1.655017e+00
  3.693256e-02    2.986171e+02   1.256420e+00
  4.067782e-02    2.242266e+02   9.768744e-01
  4.442308e-02    1.928195e+02   7.472843e-01
  4.816835e-02    1.613811e+02   5.823161e-01
  5.191361e-02    1.286413e+02   4.772942e-01
  5.565888e-02    1.023211e+02   3.821345e-01
  5.940414e-02    8.373448e+01   3.154623e-01
  6.314940e-02    6.954717e+01   2.751849e-01
  6.689467e-02    5.934752e+01   2.477722e-01
  7.063993e-02    5.133667e+01   2.269208e-01
  7.438520e-02    4.431277e+01   2.055560e-01
  7.813046e-02    3.972799e+01   1.885400e-01
  8.187572e-02    3.592578e+01   1.742982e-01
  8.562099e-02    3.245026e+01   1.610570e-01
  8.936625e-02    2.966821e+01   1.500180e-01
  9.311152e-02    2.772504e+01   1.415750e-01
  9.685678e-02    2.647690e+01   1.351098e-01
  1.006020e-01    2.492714e+01   1.281816e-01
  1.043473e-01    2.388359e+01   1.227965e-01
  1.080926e-01    2.305763e+01   1.181552e-01
  1.118378e-01    2.207993e+01   1.133888e-01
  1.155831e-01    2.138334e+01   1.095280e-01
  1.193284e-01    2.071185e+01   1.058203e-01
  1.230736e-01    1.992644e+01   1.019951e-01
  1.268189e-01    1.979297e+01   9.996251e-02
  1.305642e-01    1.907883e+01   9.652228e-02
  1.343094e-01    1.875294e+01   9.414057e-02
  1.380547e-01    1.864998e+01   9.247034e-02
  1.417999e-01    1.825056e+01   9.011099e-02
  1.455452e-01    1.795753e+01   8.809682e-02
  1.492905e-01    1.778976e+01   8.647918e-02
  1.530357e-01    1.765639e+01   8.497862e-02
  1.567810e-01    1.704193e+01   8.237915e-02
  1.605263e-01    1.697647e+01   8.119291e-02
  1.642715e-01    1.662070e+01   7.930517e-02
  1.680168e-01    1.684201e+01   7.881090e-02
  1.717621e-01    1.646588e+01   7.701163e-02
  1.755073e-01    1.648500e+01   7.615817e-02
  1.792526e-01    1.663308e+01   7.561697e-02
  1.829978e-01    1.662788e+01   7.478419e-02
  1.867431e-01    1.630582e+01   7.324017e-02
  1.904884e-01    1.616827e+01   7.214589e-02
  1.942336e-01    1.618980e+01   7.145481e-02
  1.979789e-01    1.609725e+01   7.050955e-02
  2.017242e-01    1.591412e+01   6.937026e-02
  2.054694e-01    1.590535e+01   6.866434e-02
  2.092147e-01    1.592620e+01   6.804304e-02
  2.129600e-01    1.589673e+01   6.733248e-02
  2.167052e-01    1.582969e+01   6.655814e-02
  2.204505e-01    1.569657e+01   6.566665e-02
  2.241958e-01    1.584370e+01   6.537490e-02
  2.279410e-01    1.598642e+01   6.508540e-02
  2.316863e-01    1.576673e+01   6.405970e-02
  2.354315e-01    1.557321e+01   6.311288e-02
  2.391768e-01    1.549624e+01   6.242503e-02
  2.429221e-01    1.552668e+01   6.195499e-02
  2.466673e-01    1.569139e+01   6.176547e-02
  2.504126e-01    1.549883e+01   6.089566e-02
  2.541579e-01    1.549864e+01   6.041723e-02
  2.579031e-01    1.542018e+01   5.978995e-02
  2.616484e-01    1.544943e+01   5.938131e-02
  2.653937e-01    1.562285e+01   5.924770e-02
  2.691389e-01    1.542665e+01   5.844035e-02
  2.728842e-01    1.532948e+01   5.782792e-02
  2.766294e-01    1.535472e+01   5.745496e-02
  2.803747e-01    1.555562e+01   5.741086e-02
  2.841200e-01    1.541328e+01   5.674201e-02
  2.878652e-01    1.542484e+01   5.637343e-02
  2.916105e-01    1.534928e+01   5.584562e-02
  2.953558e-01    1.555726e+01   5.584595e-02
  2.991010e-01    1.543379e+01   5.524322e-02
  3.028463e-01    1.519713e+01   5.445053e-02
  3.065916e-01    1.538054e+01   5.442420e-02
  3.103368e-01    1.540413e+01   5.411650e-02
  3.140821e-01    1.532964e+01   5.364749e-02
  3.178273e-01    1.543935e+01   5.349503e-02
  3.215726e-01    1.538593e+01   5.306835e-02
  3.253179e-01    1.547380e+01   5.289123e-02
  3.290631e-01    1.532960e+01   5.232628e-02
  3.328084e-01    1.539954e+01   5.212984e-02
  3.365537e-01    1.542780e+01   5.187667e-02
  3.402989e-01    1.532338e+01   5.139970e-02
  3.440442e-01    1.539155e+01   5.121550e-02
  3.477895e-01    1.523770e+01   5.066859e-02
  3.515347e-01    1.544414e+01   5.072242e-02
  3.552800e-01    1.553493e+01   5.059225e-02
  3.590253e-01    1.561170e+01   5.042585e-02
  3.627705e-01    1.591855e+01   5.064289e-02
  3.665158e-01    1.612266e+01   5.068829e-02
  3.702610e-01    1.604777e+01   5.030276e-02
  3.740063e-01    1.635191e+01   5.051105e-02
  3.777516e-01    1.667612e+01   5.073689e-02
  3.814968e-01    1.693867e+01   5.087057e-02
  3.852421e-01    1.724964e+01   5.107701e-02
  3.889874e-01    1.732877e+01   5.093673e-02
  3.927326e-01    1.736961e+01   5.074413e-02
  3.964779e-01    1.727563e+01   5.034649e-02
  4.002232e-01    1.733699e+01   5.018216e-02
  4.039684e-01    1.708682e+01   4.957892e-02
  4.077137e-01    1.696802e+01   4.916807e-02
  4.114589e-01    1.688697e+01   4.882555e-02
  4.152042e-01    1.655573e+01   4.811715e-02
  4.189495e-01    1.640952e+01   4.767998e-02
  4.226947e-01    1.635000e+01   4.737421e-02
  4.264400e-01    1.597633e+01   4.660850e-02
  4.301853e-01    1.577720e+01   4.610071e-02
  4.339305e-01    1.559748e+01   4.562478e-02
  4.376758e-01    1.541045e+01   4.514495e-02
  4.414211e-01    1.540110e+01   4.493113e-02
  4.451663e-01    1.533942e+01   4.463750e-02
  4.489116e-01    1.505421e+01   4.403404e-02
  4.526568e-01    1.477508e+01   4.343513e-02
  4.564021e-01    1.479651e+01   4.327590e-02
  4.601474e-01    1.464347e+01   4.286498e-02
  4.638926e-01    1.464500e+01   4.268462e-02
  4.676379e-01    1.452754e+01   4.233210e-02
  4.713832e-01    1.428128e+01   4.179503e-02
  4.751284e-01    1.433017e+01   4.168996e-02
  4.788737e-01    1.417254e+01   4.129070e-02
  4.826190e-01    1.424094e+01   4.121590e-02
  4.863642e-01    1.410777e+01   4.085324e-02
  4.901095e-01    1.414119e+01   4.074383e-02
  4.938548e-01    1.399421e+01   4.036416e-02
  4.976000e-01    1.372255e+01   3.981996e-02
  5.013453e-01    1.365871e+01   3.956857e-02
  5.050905e-01    1.364726e+01   3.939843e-02
  5.088358e-01    1.354376e+01   3.910293e-02
  5.125811e-01    1.349851e+01   3.888063e-02
  5.163263e-01    1.355133e+01   3.881216e-02
  5.200716e-01    1.341095e+01   3.846209e-02
  5.238169e-01    1.335867e+01   3.823884e-02
  5.275621e-01    1.325511e+01   3.795136e-02
  5.313074e-01    1.321847e+01   3.776418e-02
  5.350527e-01    1.310417e+01   3.746624e-02
  5.387979e-01    1.322398e+01   3.749350e-02
  5.425432e-01    1.318216e+01   3.729834e-02
  5.462884e-01    1.315929e+01   3.713819e-02
  5.500337e-01    1.311120e+01   3.693497e-02
  5.537790e-01    1.303435e+01   3.669664e-02
  5.575242e-01    1.317618e+01   3.676102e-02
  5.612695e-01    1.299154e+01   3.637748e-02
  5.650148e-01    1.281960e+01   3.601070e-02
  5.687600e-01    1.285871e+01   3.593661e-02
  5.725053e-01    1.282383e+01   3.576829e-02
  5.762506e-01    1.278017e+01   3.558605e-02
  5.799958e-01    1.266229e+01   3.530466e-02
  5.837411e-01    1.266294e+01   3.518912e-02
  5.874863e-01    1.260874e+01   3.499556e-02
  5.912316e-01    1.262692e+01   3.490768e-02
  5.949769e-01    1.262357e+01   3.478251e-02
  5.987221e-01    1.252312e+01   3.453163e-02
  6.024674e-01    1.249524e+01   3.437800e-02
  6.062127e-01    1.248932e+01   3.426221e-02
  6.099579e-01    1.242661e+01   3.406671e-02
  6.137032e-01    1.242008e+01   3.394196e-02
  6.174485e-01    1.242646e+01   3.383792e-02
  6.211937e-01    1.243033e+01   3.374028e-02
  6.249390e-01    1.246060e+01   3.367430e-02
  6.286843e-01    1.225891e+01   3.329730e-02
  6.324295e-01    1.229569e+01   3.323922e-02
  6.361748e-01    1.223048e+01   3.304699e-02
  6.399200e-01    1.221279e+01   3.292529e-02
  6.436653e-01    1.217182e+01   3.276861e-02
  6.474106e-01    1.223723e+01   3.275356e-02
  6.511558e-01    1.222825e+01   3.264529e-02
  6.549011e-01    1.223285e+01   3.255029e-02
  6.586464e-01    1.214580e+01   3.233299e-02
  6.623916e-01    1.213699e+01   3.222668e-02
  6.661369e-01    1.214299e+01   3.214343e-02
  6.698822e-01    1.215432e+01   3.206708e-02
  6.736274e-01    1.220164e+01   3.203615e-02
  6.773727e-01    1.211453e+01   3.182089e-02
  6.811179e-01    1.203283e+01   3.161439e-02
  6.848632e-01    1.207008e+01   3.156886e-02
  6.886085e-01    1.204187e+01   3.144421e-02
  6.923537e-01    1.192824e+01   3.119897e-02
  6.960990e-01    1.201578e+01   3.121937e-02
  6.998443e-01    1.203184e+01   3.115407e-02
  7.035895e-01    1.195924e+01   3.096271e-02
  7.073348e-01    1.192430e+01   3.082954e-02
  7.110801e-01    1.179112e+01   3.056515e-02
  7.148253e-01    1.181808e+01   3.051371e-02
  7.185706e-01    1.185377e+01   3.047499e-02
  7.223158e-01    1.189049e+01   3.043218e-02
  7.260611e-01    1.197669e+01   3.045493e-02
  7.298064e-01    1.200935e+01   3.041512e-02
  7.335516e-01    1.193950e+01   3.024500e-02
  7.372969e-01    1.191282e+01   3.012297e-02
  7.410422e-01    1.192766e+01   3.005411e-02
  7.447874e-01    1.184808e+01   2.987530e-02
  7.485327e-01    1.188302e+01   2.982875e-02
  7.522780e-01    1.192097e+01   2.979720e-02
  7.560232e-01    1.190534e+01   2.969585e-02
  7.597685e-01    1.186053e+01   2.956777e-02
  7.635138e-01    1.190150e+01   2.953996e-02
  7.672590e-01    1.191999e+01   2.949223e-02
  7.710043e-01    1.194940e+01   2.945591e-02
  7.747495e-01    1.190081e+01   2.932868e-02
  7.784948e-01    1.192561e+01   2.929221e-02
  7.822401e-01    1.184788e+01   2.912565e-02
  7.859853e-01    1.182256e+01   2.902140e-02
  7.897306e-01    1.187759e+01   2.902012e-02
  7.934759e-01    1.183084e+01   2.889266e-02
  7.972211e-01    1.183054e+01   2.882213e-02
  8.009664e-01    1.181030e+01   2.873069e-02
  8.047117e-01    1.178262e+01   2.863071e-02
  8.084569e-01    1.176378e+01   2.854077e-02
  8.122022e-01    1.180519e+01   2.852331e-02
  8.159474e-01    1.174643e+01   2.838475e-02
  8.196927e-01    1.173195e+01   2.830192e-02
  8.234380e-01    1.176305e+01   2.826798e-02
  8.271832e-01    1.169520e+01   2.812413e-02
  8.309285e-01    1.175712e+01   2.813361e-02
  8.346738e-01    1.178955e+01   2.810904e-02
  8.384190e-01    1.167369e+01   2.790370e-02
  8.421643e-01    1.175904e+01   2.794395e-02
  8.459096e-01    1.176879e+01   2.789277e-02
  8.496548e-01    1.172729e+01   2.777956e-02
  8.534001e-01    1.158234e+01   2.754015e-02
  8.571454e-01    1.160093e+01   2.750053e-02
  8.608906e-01    1.168536e+01   2.753669e-02
  8.646359e-01    1.171012e+01   2.750730e-02
  8.683811e-01    1.169216e+01   2.745792e-02
  8.721264e-01    1.165576e+01   2.772365e-02
  8.758717e-01    1.162109e+01   2.786019e-02
  8.796169e-01    1.163146e+01   2.830907e-02
  8.833622e-01    1.153292e+01   2.855059e-02
  8.871075e-01    1.157048e+01   2.879568e-02
  8.908527e-01    1.156130e+01   2.893158e-02
  8.945980e-01    1.144478e+01   2.890611e-02
  8.983433e-01    1.143803e+01   2.899802e-02
  9.020885e-01    1.150584e+01   2.916326e-02
  9.058338e-01    1.138961e+01   2.909372e-02
  9.095790e-01    1.144942e+01   2.923091e-02
  9.133243e-01    1.135774e+01   2.917431e-02
  9.170696e-01    1.133091e+01   2.918746e-02
  9.208148e-01    1.135897e+01   2.927453e-02
  9.245601e-01    1.141498e+01   2.942595e-02
  9.283054e-01    1.131160e+01   2.936453e-02
  9.320506e-01    1.136700e+01   2.949337e-02
  9.357959e-01    1.140977e+01   2.959255e-02
  9.395412e-01    1.126336e+01   2.942751e-02
  9.432864e-01    1.120934e+01   2.939180e-02
  9.470317e-01    1.129327e+01   2.953352e-02
  9.507769e-01    1.127189e+01   2.952122e-02
  9.545222e-01    1.125415e+01   2.951089e-02
  9.582675e-01    1.113420e+01   2.938109e-02
  9.620127e-01    1.123514e+01   2.952995e-02
  9.657580e-01    1.124129e+01   2.955117e-02
  9.695033e-01    1.118733e+01   2.951990e-02
  9.732485e-01    1.109674e+01   2.945294e-02
  9.769938e-01    1.116803e+01   2.958902e-02
  9.807391e-01    1.113463e+01   2.957352e-02
  9.844843e-01    1.119756e+01   2.969069e-02
  9.882296e-01    1.123132e+01   2.971663e-02
  9.919749e-01    1.123010e+01   2.966969e-02
  9.957201e-01    1.115543e+01   2.952542e-02
  9.994654e-01    1.122379e+01   2.957679e-02
  1.003211e+00    1.116598e+01   2.945927e-02
  1.006956e+00    1.107081e+01   2.928627e-02
  1.010701e+00    1.111792e+01   2.930438e-02
  1.014446e+00    1.114596e+01   2.930016e-02
  1.018192e+00    1.111008e+01   2.921190e-02
  1.021937e+00    1.112251e+01   2.921719e-02
  1.025682e+00    1.123514e+01   2.936430e-02
  1.029427e+00    1.120384e+01   2.932564e-02
  1.033173e+00    1.116496e+01   2.927263e-02
  1.036918e+00    1.118292e+01   2.931274e-02
  1.040663e+00    1.113471e+01   2.927035e-02
  1.044409e+00    1.107426e+01   2.921281e-02
  1.048154e+00    1.107165e+01   2.923024e-02
  1.051899e+00    1.116903e+01   2.937928e-02
  1.055644e+00    1.118772e+01   2.942217e-02
  1.059390e+00    1.110307e+01   2.932067e-02
  1.063135e+00    1.103860e+01   2.924451e-02
  1.066880e+00    1.112843e+01   2.936620e-02
  1.070625e+00    1.113800e+01   2.938193e-02
  1.074371e+00    1.113165e+01   2.938451e-02
  1.078116e+00    1.106957e+01   2.930871e-02
  1.081861e+00    1.105308e+01   2.928436e-02
  1.085606e+00    1.104787e+01   2.928847e-02
  1.089352e+00    1.105486e+01   2.931614e-02
  1.093097e+00    1.107020e+01   2.934575e-02
  1.096842e+00    1.103798e+01   2.931145e-02
  1.100588e+00    1.102467e+01   2.930322e-02
  1.104333e+00    1.102376e+01   2.931701e-02
  1.108078e+00    1.108311e+01   2.940248e-02
  1.111823e+00    1.103250e+01   2.934002e-02
  1.115569e+00    1.098630e+01   2.928985e-02
  1.119314e+00    1.096729e+01   2.926424e-02
  1.123059e+00    1.102063e+01   2.933763e-02
  1.126804e+00    1.107985e+01   2.941473e-02
  1.130550e+00    1.109547e+01   2.943280e-02
  1.134295e+00    1.100348e+01   2.931788e-02
  1.138040e+00    1.104619e+01   2.937657e-02
  1.141785e+00    1.105362e+01   2.938288e-02
  1.145531e+00    1.098464e+01   2.928632e-02
  1.149276e+00    1.093054e+01   2.921415e-02
  1.153021e+00    1.099172e+01   2.929398e-02
  1.156766e+00    1.094852e+01   2.923414e-02
  1.160512e+00    1.095152e+01   2.923994e-02
  1.164257e+00    1.093335e+01   2.920986e-02
  1.168002e+00    1.092314e+01   2.919682e-02
  1.171748e+00    1.098404e+01   2.926610e-02
  1.175493e+00    1.085361e+01   2.908757e-02
  1.179238e+00    1.092081e+01   2.917216e-02
  1.182983e+00    1.085727e+01   2.908452e-02
  1.186729e+00    1.091856e+01   2.916037e-02
  1.190474e+00    1.091632e+01   2.915201e-02
  1.194219e+00    1.089469e+01   2.911785e-02
  1.197964e+00    1.086537e+01   2.907078e-02
  1.201710e+00    1.085820e+01   2.904947e-02
  1.205455e+00    1.083897e+01   2.901826e-02
  1.209200e+00    1.085272e+01   2.902787e-02
  1.212945e+00    1.076859e+01   2.890085e-02
  1.216691e+00    1.076624e+01   2.889253e-02
  1.220436e+00    1.076761e+01   2.888681e-02
  1.224181e+00    1.078581e+01   2.891112e-02
  1.227926e+00    1.074061e+01   2.884639e-02
  1.231672e+00    1.075409e+01   2.886239e-02
  1.235417e+00    1.072997e+01   2.883300e-02
  1.239162e+00    1.076864e+01   2.888333e-02
  1.242908e+00    1.077956e+01   2.889416e-02
  1.246653e+00    1.071837e+01   2.880565e-02
  1.250398e+00    1.077705e+01   2.888045e-02
  1.254143e+00    1.071986e+01   2.880565e-02
  1.257889e+00    1.072291e+01   2.880205e-02
  1.261634e+00    1.074292e+01   2.881314e-02
  1.265379e+00    1.075485e+01   2.882546e-02
  1.269124e+00    1.065935e+01   2.869267e-02
  1.272870e+00    1.065101e+01   2.867617e-02
  1.276615e+00    1.069888e+01   2.873515e-02
  1.280360e+00    1.068629e+01   2.871060e-02
  1.284105e+00    1.060814e+01   2.859768e-02
  1.287851e+00    1.065536e+01   2.865272e-02
  1.291596e+00    1.061201e+01   2.858760e-02
  1.295341e+00    1.065951e+01   2.864067e-02
  1.299086e+00    1.057124e+01   2.851694e-02
  1.302832e+00    1.055132e+01   2.847709e-02
  1.306577e+00    1.049629e+01   2.839607e-02
  1.310322e+00    1.047921e+01   2.836842e-02
  1.314068e+00    1.060290e+01   2.852048e-02
  1.317813e+00    1.053109e+01   2.841758e-02
  1.321558e+00    1.060689e+01   2.851526e-02
  1.325303e+00    1.043671e+01   2.827491e-02
  1.329049e+00    1.044654e+01   2.827289e-02
  1.332794e+00    1.047646e+01   2.830496e-02
  1.336539e+00    1.043589e+01   2.824348e-02
  1.340284e+00    1.040198e+01   2.818591e-02
  1.344030e+00    1.038837e+01   2.816090e-02
  1.347775e+00    1.046058e+01   2.825008e-02
  1.351520e+00    1.040300e+01   2.815785e-02
  1.355265e+00    1.037200e+01   2.810326e-02
  1.359011e+00    1.037821e+01   2.810000e-02
  1.362756e+00    1.045657e+01   2.819776e-02
  1.366501e+00    1.041464e+01   2.814983e-02
  1.370247e+00    1.036632e+01   2.808187e-02
  1.373992e+00    1.038215e+01   2.810804e-02
  1.377737e+00    1.032893e+01   2.803068e-02
  1.381482e+00    1.033377e+01   2.804210e-02
  1.385228e+00    1.041288e+01   2.815062e-02
  1.388973e+00    1.038939e+01   2.811280e-02
  1.392718e+00    1.037353e+01   2.809286e-02
  1.396463e+00    1.031370e+01   2.801050e-02
  1.400209e+00    1.029550e+01   2.798075e-02
  1.403954e+00    1.032093e+01   2.767690e-02
  1.407699e+00    1.027740e+01   2.745926e-02
  1.411444e+00    1.028505e+01   2.737834e-02
  1.415190e+00    1.034353e+01   2.738291e-02
  1.418935e+00    1.027199e+01   2.722237e-02
  1.422680e+00    1.027746e+01   2.716713e-02
  1.426425e+00    1.023602e+01   2.705757e-02
  1.430171e+00    1.019298e+01   2.695031e-02
  1.433916e+00    1.018367e+01   2.690856e-02
  1.437661e+00    1.017540e+01   2.688951e-02
  1.441407e+00    1.019908e+01   2.692267e-02
  1.445152e+00    1.016535e+01   2.687657e-02
  1.448897e+00    1.009810e+01   2.678195e-02
  1.452642e+00    1.006473e+01   2.673673e-02
  1.456388e+00    1.003033e+01   2.668121e-02
  1.460133e+00    1.009422e+01   2.676080e-02
  1.463878e+00    1.005229e+01   2.670487e-02
  1.467623e+00    1.012600e+01   2.679373e-02
  1.471369e+00    1.006160e+01   2.670050e-02
  1.475114e+00    1.008736e+01   2.672918e-02
  1.478859e+00    1.007703e+01   2.671181e-02
  1.482604e+00    1.007387e+01   2.670623e-02
  1.486350e+00    1.004066e+01   2.665501e-02
  1.490095e+00    9.891647e+00   2.644942e-02
  1.493840e+00    9.959332e+00   2.653471e-02
  1.497585e+00    1.003057e+01   2.662106e-02
  1.501331e+00    9.963070e+00   2.652602e-02
  1.505076e+00    9.986473e+00   2.654855e-02
  1.508821e+00    1.004914e+01   2.662591e-02
  1.512567e+00    1.005470e+01   2.662739e-02
  1.516312e+00    9.935758e+00   2.647818e-02
  1.520057e+00    9.926878e+00   2.651480e-02
  1.523802e+00    9.933247e+00   2.657064e-02
  1.527548e+00    9.956999e+00   2.664427e-02
  1.531293e+00    9.929270e+00   2.664759e-02
  1.535038e+00    9.950055e+00   2.671507e-02
  1.538783e+00    9.964525e+00   2.676703e-02
  1.542529e+00    9.927850e+00   2.674613e-02
  1.546274e+00    9.858912e+00   2.667910e-02
  1.550019e+00    9.796427e+00   2.662394e-02
  1.553764e+00    9.819215e+00   2.668317e-02
  1.557510e+00    9.859862e+00   2.675323e-02
  1.561255e+00    9.771218e+00   2.665625e-02
  1.565000e+00    9.776050e+00   2.668218e-02
  1.568745e+00    9.786143e+00   2.671183e-02
  1.572491e+00    9.809798e+00   2.675924e-02
  1.576236e+00    9.859930e+00   2.684648e-02
  1.579981e+00    9.848865e+00   2.685407e-02
  1.583727e+00    9.774007e+00   2.676138e-02
  1.587472e+00    9.703404e+00   2.667766e-02
  1.591217e+00    9.748842e+00   2.675851e-02
  1.594962e+00    9.656722e+00   2.663920e-02
  1.598708e+00    9.755487e+00   2.678356e-02
  1.602453e+00    9.804275e+00   2.686568e-02
  1.606198e+00    9.718177e+00   2.675980e-02
  1.609943e+00    9.727978e+00   2.679030e-02
  1.613689e+00    9.685779e+00   2.674036e-02
  1.617434e+00    9.638683e+00   2.672513e-02
  1.621179e+00    9.637041e+00   2.677526e-02
  1.624924e+00    9.599416e+00   2.677745e-02
  1.628670e+00    9.610938e+00   2.684658e-02
  1.632415e+00    9.636421e+00   2.692519e-02
  1.636160e+00    9.635299e+00   2.696438e-02
  1.639906e+00    9.626348e+00   2.699414e-02
  1.643651e+00    9.666144e+00   2.708693e-02
  1.647396e+00    9.659934e+00   2.711617e-02
  1.651141e+00    9.548163e+00   2.699654e-02
  1.654887e+00    9.581777e+00   2.707362e-02
  1.658632e+00    9.585298e+00   2.711754e-02
  1.662377e+00    9.585979e+00   2.714691e-02
  1.666122e+00    9.491079e+00   2.704454e-02
  1.669868e+00    9.498231e+00   2.708167e-02
  1.673613e+00    9.519676e+00   2.713812e-02
  1.677358e+00    9.466517e+00   2.708827e-02
  1.681103e+00    9.441217e+00   2.707284e-02
  1.684849e+00    9.412256e+00   2.705442e-02
  1.688594e+00    9.472255e+00   2.716601e-02
  1.692339e+00    9.444637e+00   2.715084e-02
  1.696084e+00    9.496123e+00   2.724227e-02
  1.699830e+00    9.413783e+00   2.714464e-02
  1.703575e+00    9.365489e+00   2.709653e-02
  1.707320e+00    9.294847e+00   2.701272e-02
  1.711066e+00    9.432741e+00   2.724281e-02
  1.714811e+00    9.425824e+00   2.725925e-02
  1.718556e+00    9.390270e+00   2.723019e-02
  1.722301e+00    9.353626e+00   2.720305e-02
  1.726047e+00    9.361007e+00   2.723892e-02
  1.729792e+00    9.313626e+00   2.719341e-02
  1.733537e+00    9.310131e+00   2.720884e-02
  1.737282e+00    9.255918e+00   2.715102e-02
  1.741028e+00    9.320146e+00   2.727038e-02
  1.744773e+00    9.369229e+00   2.736348e-02
  1.748518e+00    9.330519e+00   2.732298e-02
  1.752263e+00    9.305000e+00   2.730160e-02
  1.756009e+00    9.275541e+00   2.727253e-02
  1.759754e+00    9.311913e+00   2.735065e-02
  1.763499e+00    9.245124e+00   2.727264e-02
  1.767244e+00    9.225321e+00   2.725789e-02
  1.770990e+00    9.289392e+00   2.737448e-02
  1.774735e+00    9.273339e+00   2.736516e-02
  1.778480e+00    9.273719e+00   2.738081e-02
  1.782226e+00    9.292646e+00   2.742140e-02
  1.785971e+00    9.261178e+00   2.739524e-02
  1.789716e+00    9.228955e+00   2.736245e-02
  1.793461e+00    9.247206e+00   2.739662e-02
  1.797207e+00    9.145631e+00   2.726093e-02
  1.800952e+00    9.106530e+00   2.722088e-02
  1.804697e+00    9.124399e+00   2.725612e-02
  1.808442e+00    9.151590e+00   2.731328e-02
  1.812188e+00    9.133468e+00   2.729812e-02
  1.815933e+00    9.170030e+00   2.736532e-02
  1.819678e+00    9.131395e+00   2.732061e-02
  1.823423e+00    9.147921e+00   2.735487e-02
  1.827169e+00    9.157156e+00   2.738125e-02
  1.830914e+00    9.184743e+00   2.743075e-02
  1.834659e+00    9.180825e+00   2.743793e-02
  1.838404e+00    9.137601e+00   2.739030e-02
  1.842150e+00    9.130730e+00   2.738294e-02
  1.845895e+00    9.142385e+00   2.740785e-02
  1.849640e+00    9.099937e+00   2.735734e-02
  1.853386e+00    9.047032e+00   2.728463e-02
  1.857131e+00    9.002127e+00   2.722530e-02
  1.860876e+00    9.029499e+00   2.727599e-02
  1.864621e+00    9.045294e+00   2.731149e-02
  1.868367e+00    8.987956e+00   2.722738e-02
  1.872112e+00    8.991884e+00   2.724069e-02
  1.875857e+00    9.016791e+00   2.728977e-02
  1.879602e+00    8.991677e+00   2.725948e-02
  1.883348e+00    8.926451e+00   2.716984e-02
  1.887093e+00    8.896125e+00   2.713958e-02
  1.890838e+00    8.929863e+00   2.719544e-02
  1.894583e+00    8.918411e+00   2.718706e-02
  1.898329e+00    8.953658e+00   2.726095e-02
  1.902074e+00    8.976583e+00   2.730566e-02
  1.905819e+00    8.977415e+00   2.731632e-02
  1.909565e+00    8.885723e+00   2.719188e-02
  1.913310e+00    8.884677e+00   2.719876e-02
  1.917055e+00    8.887126e+00   2.721472e-02
  1.920800e+00    8.890130e+00   2.722557e-02
  1.924546e+00    8.819778e+00   2.713556e-02
  1.928291e+00    8.822590e+00   2.715731e-02
  1.932036e+00    8.742452e+00   2.705192e-02
  1.935781e+00    8.795299e+00   2.715229e-02
  1.939527e+00    8.803710e+00   2.718335e-02
  1.943272e+00    8.820215e+00   2.722664e-02
  1.947017e+00    8.792480e+00   2.719671e-02
  1.950762e+00    8.781397e+00   2.719966e-02
  1.954508e+00    8.781968e+00   2.721830e-02
  1.958253e+00    8.688463e+00   2.708756e-02
  1.961998e+00    8.697330e+00   2.712016e-02
  1.965743e+00    8.784107e+00   2.726921e-02
  1.969489e+00    8.771996e+00   2.726734e-02
  1.973234e+00    8.785110e+00   2.730226e-02
  1.976979e+00    8.703748e+00   2.719047e-02
  1.980725e+00    8.645524e+00   2.711870e-02
  1.984470e+00    8.668303e+00   2.716991e-02
  1.988215e+00    8.735654e+00   2.728988e-02
  1.991960e+00    8.601760e+00   2.708953e-02
  1.995706e+00    8.646752e+00   2.717343e-02
  1.999451e+00    8.665593e+00   2.721857e-02
  2.003196e+00    8.620620e+00   2.716251e-02
  2.006941e+00    8.603754e+00   2.715237e-02
  2.010687e+00    8.663310e+00   2.725731e-02
  2.014432e+00    8.622121e+00   2.721099e-02
  2.018177e+00    8.595301e+00   2.718027e-02
  2.021922e+00    8.520952e+00   2.707326e-02
  2.025668e+00    8.555082e+00   2.714189e-02
  2.029413e+00    8.554624e+00   2.715487e-02
  2.033158e+00    8.635051e+00   2.729210e-02
  2.036903e+00    8.619912e+00   2.728073e-02
  2.040649e+00    8.499249e+00   2.709789e-02
  2.044394e+00    8.485295e+00   2.708757e-02
  2.048139e+00    8.528146e+00   2.716596e-02
  2.051885e+00    8.548501e+00   2.721128e-02
  2.055630e+00    8.465873e+00   2.708960e-02
  2.059375e+00    8.453775e+00   2.708182e-02
  2.063120e+00    8.403433e+00   2.701269e-02
  2.066866e+00    8.503275e+00   2.718786e-02
  2.070611e+00    8.504102e+00   2.719849e-02
  2.074356e+00    8.508948e+00   2.721828e-02
  2.078101e+00    8.482312e+00   2.718452e-02
  2.081847e+00    8.444375e+00   2.713106e-02
  2.085592e+00    8.496481e+00   2.722487e-02
  2.089337e+00    8.463406e+00   2.719120e-02
  2.093082e+00    8.406921e+00   2.710075e-02
  2.096828e+00    8.448584e+00   2.717679e-02
  2.100573e+00    8.395874e+00   2.710499e-02
  2.104318e+00    8.369441e+00   2.706952e-02
  2.108063e+00    8.391628e+00   2.711434e-02
  2.111809e+00    8.428371e+00   2.718180e-02
  2.115554e+00    8.415421e+00   2.716882e-02
  2.119299e+00    8.365132e+00   2.709617e-02
  2.123045e+00    8.364879e+00   2.710103e-02
  2.126790e+00    8.330799e+00   2.705407e-02
  2.130535e+00    8.408936e+00   2.719261e-02
  2.134280e+00    8.364077e+00   2.713190e-02
  2.138026e+00    8.313587e+00   2.705884e-02
  2.141771e+00    8.342606e+00   2.711181e-02
  2.145516e+00    8.342068e+00   2.712145e-02
  2.149261e+00    8.299302e+00   2.705764e-02
  2.153007e+00    8.233732e+00   2.695645e-02
  2.156752e+00    8.245027e+00   2.698433e-02
  2.160497e+00    8.264933e+00   2.702473e-02
  2.164242e+00    8.298244e+00   2.709099e-02
  2.167988e+00    8.311642e+00   2.713310e-02
  2.171733e+00    8.280149e+00   2.710343e-02
  2.175478e+00    8.236709e+00   2.705518e-02
  2.179224e+00    8.309372e+00   2.719657e-02
  2.182969e+00    8.308232e+00   2.721503e-02
  2.186714e+00    8.294594e+00   2.721361e-02
  2.190459e+00    8.304347e+00   2.725082e-02
  2.194205e+00    8.369048e+00   2.737746e-02
  2.197950e+00    8.298730e+00   2.727724e-02
  2.201695e+00    8.305387e+00   2.730587e-02
  2.205440e+00    8.336918e+00   2.737739e-02
  2.209186e+00    8.324464e+00   2.738430e-02
  2.212931e+00    8.233994e+00   2.728175e-02
  2.216676e+00    8.261977e+00   2.737737e-02
  2.220421e+00    8.284103e+00   2.746629e-02
  2.224167e+00    8.218815e+00   2.740638e-02
  2.227912e+00    8.157733e+00   2.735225e-02
  2.231657e+00    8.222614e+00   2.751342e-02
  2.235402e+00    8.197060e+00   2.751138e-02
  2.239148e+00    8.172017e+00   2.751491e-02
  2.242893e+00    8.246378e+00   2.768905e-02
  2.246638e+00    8.275081e+00   2.778500e-02
  2.250384e+00    8.304675e+00   2.787844e-02
  2.254129e+00    8.313282e+00   2.793539e-02
  2.257874e+00    8.245993e+00   2.786561e-02
  2.261619e+00    8.264867e+00   2.793925e-02
  2.265365e+00    8.217184e+00   2.789204e-02
  2.269110e+00    8.301120e+00   2.807761e-02
  2.272855e+00    8.204696e+00   2.795467e-02
  2.276600e+00    8.219572e+00   2.802046e-02
  2.280346e+00    8.214768e+00   2.805168e-02
  2.284091e+00    8.165865e+00   2.800569e-02
  2.287836e+00    8.176251e+00   2.805934e-02
  2.291581e+00    8.173895e+00   2.809339e-02
  2.295327e+00    8.157183e+00   2.809988e-02
  2.299072e+00    8.137748e+00   2.810097e-02
  2.302817e+00    8.151168e+00   2.815960e-02
  2.306562e+00    8.176664e+00   2.823618e-02
  2.310308e+00    8.136817e+00   2.820909e-02
  2.314053e+00    8.177896e+00   2.831245e-02
  2.317798e+00    8.158901e+00   2.831269e-02
  2.321544e+00    8.104074e+00   2.825152e-02
  2.325289e+00    8.079079e+00   2.823932e-02
  2.329034e+00    8.126204e+00   2.835402e-02
  2.332779e+00    8.132926e+00   2.841529e-02
  2.336525e+00    8.146292e+00   2.850713e-02
  2.340270e+00    8.087674e+00   2.847462e-02
  2.344015e+00    8.103301e+00   2.857055e-02
  2.347760e+00    8.027686e+00   2.849550e-02
  2.351506e+00    8.133271e+00   2.874610e-02
  2.355251e+00    8.157133e+00   2.884756e-02
  2.358996e+00    8.109786e+00   2.881784e-02
  2.362741e+00    8.137754e+00   2.892914e-02
  2.366487e+00    8.154746e+00   2.901704e-02
  2.370232e+00    8.037939e+00   2.885973e-02
  2.373977e+00    8.105450e+00   2.903306e-02
  2.377722e+00    8.076889e+00   2.903414e-02
  2.381468e+00    8.022606e+00   2.899023e-02
  2.385213e+00    8.070290e+00   2.913603e-02
  2.388958e+00    8.032385e+00   2.912681e-02
  2.392704e+00    8.023906e+00   2.917362e-02
  2.396449e+00    8.104156e+00   2.936919e-02
  2.400194e+00    8.057962e+00   2.935053e-02
  2.403939e+00    7.978439e+00   2.926663e-02
  2.407685e+00    7.965075e+00   2.929470e-02
  2.411430e+00    7.965003e+00   2.934651e-02
  2.415175e+00    7.989763e+00   2.945562e-02
  2.418920e+00    8.079225e+00   2.967961e-02
  2.422666e+00    8.007310e+00   2.959811e-02
  2.426411e+00    8.008366e+00   2.965036e-02
  2.430156e+00    7.997458e+00   2.968159e-02
  2.433901e+00    7.938503e+00   2.963395e-02
  2.437647e+00    7.925326e+00   2.966586e-02
  2.441392e+00    7.928491e+00   2.971780e-02
  2.445137e+00    7.905725e+00   2.972015e-02
  2.448883e+00    7.899076e+00   2.976669e-02
  2.452628e+00    7.880404e+00   2.978677e-02
  2.456373e+00    7.906786e+00   2.987958e-02
  2.460118e+00    7.891231e+00   2.989966e-02
  2.463864e+00    7.829161e+00   2.983293e-02
  2.467609e+00    7.880486e+00   2.998837e-02
  2.471354e+00    7.885649e+00   3.004620e-02
  2.475099e+00    7.874989e+00   3.007257e-02
  2.478845e+00    7.835025e+00   3.004035e-02
  2.482590e+00    7.826618e+00   3.007033e-02
  2.486335e+00    7.769347e+00   3.001867e-02
  2.490080e+00    7.806176e+00   3.013463e-02
  2.493826e+00    7.895004e+00   3.034872e-02
  2.497571e+00    7.895036e+00   3.039927e-02
  2.501316e+00    7.881451e+00   3.042332e-02
  2.505061e+00    7.939507e+00   3.058248e-02
  2.508807e+00    7.934019e+00   3.062092e-02
  2.512552e+00    7.830594e+00   3.046903e-02
  2.516297e+00    7.880539e+00   3.061637e-02
  2.520043e+00    7.848893e+00   3.060435e-02
  2.523788e+00    7.835121e+00   3.063035e-02
  2.527533e+00    7.861743e+00   3.073395e-02
  2.531278e+00    7.909566e+00   3.087362e-02
  2.535024e+00    7.977438e+00   3.105081e-02
  2.538769e+00    8.002696e+00   3.115064e-02
  2.542514e+00    7.994102e+00   3.118765e-02
  2.546259e+00    7.962658e+00   3.117371e-02
  2.550005e+00    7.973111e+00   3.123971e-02
  2.553750e+00    7.876328e+00   3.109515e-02
  2.557495e+00    7.911920e+00   3.120966e-02
  2.561240e+00    7.954796e+00   3.134762e-02
  2.564986e+00    7.977479e+00   3.143211e-02
  2.568731e+00    7.998426e+00   3.152170e-02
  2.572476e+00    7.897577e+00   3.136733e-02
  2.576221e+00    7.935599e+00   3.148834e-02
  2.579967e+00    7.944585e+00   3.156095e-02
  2.583712e+00    7.880925e+00   3.148013e-02
  2.587457e+00    7.854192e+00   3.146994e-02
  2.591203e+00    7.973613e+00   3.175656e-02
  2.594948e+00    7.955649e+00   3.175810e-02
  2.598693e+00    7.982049e+00   3.186635e-02
  2.602438e+00    7.947923e+00   3.188092e-02
  2.606184e+00    7.926498e+00   3.192291e-02
  2.609929e+00    7.883550e+00   3.192234e-02
  2.613674e+00    7.934508e+00   3.210391e-02
  2.617419e+00    8.039825e+00   3.239852e-02
  2.621165e+00    7.963056e+00   3.232215e-02
  2.624910e+00    7.935465e+00   3.234254e-02
  2.628655e+00    7.972295e+00   3.249734e-02
  2.632400e+00    7.976305e+00   3.258836e-02
  2.636146e+00    7.962096e+00   3.263456e-02
  2.639891e+00    7.910067e+00   3.260307e-02
  2.643636e+00    7.905723e+00   3.266729e-02
  2.647381e+00    7.903490e+00   3.273485e-02
  2.651127e+00    7.878865e+00   3.275760e-02
  2.654872e+00    7.957508e+00   3.300592e-02
  2.658617e+00    7.981232e+00   3.313220e-02
  2.662363e+00    8.001784e+00   3.325298e-02
  2.666108e+00    8.032912e+00   3.339240e-02
  2.669853e+00    7.922642e+00   3.323487e-02
  2.673598e+00    7.817739e+00   3.308775e-02
  2.677344e+00    7.882090e+00   3.330030e-02
  2.681089e+00    7.899579e+00   3.340903e-02
  2.684834e+00    7.965949e+00   3.362689e-02
  2.688579e+00    7.908706e+00   3.357861e-02
  2.692325e+00    7.827119e+00   3.347378e-02
  2.696070e+00    7.855204e+00   3.360581e-02
  2.699815e+00    7.953712e+00   3.392698e-02
  2.703560e+00    8.035827e+00   3.421430e-02
  2.707306e+00    7.953842e+00   3.415722e-02
  2.711051e+00    7.984383e+00   3.433667e-02
  2.714796e+00    7.997231e+00   3.448229e-02
  2.718542e+00    7.958090e+00   3.450011e-02
  2.722287e+00    7.964561e+00   3.462146e-02
  2.726032e+00    8.034763e+00   3.488986e-02
  2.729777e+00    8.062740e+00   3.506347e-02
  2.733523e+00    8.094289e+00   3.524692e-02
  2.737268e+00    8.028335e+00   3.521533e-02
  2.741013e+00    8.069293e+00   3.541409e-02
  2.744758e+00    8.068905e+00   3.551947e-02
  2.748504e+00    8.027689e+00   3.553385e-02
  2.752249e+00    7.949355e+00   3.546814e-02
  2.755994e+00    7.941521e+00   3.556293e-02
  2.759739e+00    7.951126e+00   3.569463e-02
  2.763485e+00    7.864392e+00   3.560333e-02
  2.767230e+00    7.871209e+00   3.573114e-02
  2.770975e+00    7.892092e+00   3.588453e-02
  2.774720e+00    7.895794e+00   3.600006e-02
  2.778466e+00    7.872564e+00   3.605050e-02
  2.782211e+00    8.023894e+00   3.650370e-02
  2.785956e+00    7.890766e+00   3.631012e-02
  2.789702e+00    7.891402e+00   3.641880e-02
  2.793447e+00    7.862536e+00   3.646183e-02
  2.797192e+00    7.902547e+00   3.666204e-02
  2.800937e+00    7.833869e+00   3.661338e-02
  2.804683e+00    7.883672e+00   3.684122e-02
  2.808428e+00    7.819613e+00   3.680903e-02
  2.812173e+00    7.846269e+00   3.704543e-02
  2.815918e+00    7.898654e+00   3.734686e-02
  2.819664e+00    7.915789e+00   3.755563e-02
  2.823409e+00    7.954989e+00   3.782316e-02
  2.827154e+00    7.909595e+00   3.789819e-02
  2.830899e+00    8.004152e+00   3.829660e-02
  2.834645e+00    7.902880e+00   3.822748e-02
  2.838390e+00    7.810134e+00   3.817878e-02
  2.842135e+00    7.827399e+00   3.840305e-02
  2.845880e+00    8.009998e+00   3.903217e-02
  2.849626e+00    7.904028e+00   3.895909e-02
  2.853371e+00    7.840070e+00   3.898666e-02
  2.857116e+00    7.848539e+00   3.918749e-02
  2.860862e+00    7.873774e+00   3.944323e-02
  2.864607e+00    7.897049e+00   3.968049e-02
  2.868352e+00    7.893380e+00   3.985610e-02
  2.872097e+00    7.976705e+00   4.025555e-02
  2.875843e+00    7.978007e+00   4.044173e-02
  2.879588e+00    7.878021e+00   4.037960e-02
  2.883333e+00    7.898839e+00   4.062186e-02
  2.887078e+00    8.000810e+00   4.106693e-02
  2.890824e+00    7.910826e+00   4.102976e-02
  2.894569e+00    7.891464e+00   4.116589e-02
  2.898314e+00    8.005852e+00   4.166142e-02
  2.902059e+00    7.992819e+00   4.181723e-02
  2.905805e+00    7.999832e+00   4.203925e-02
  2.909550e+00    7.937932e+00   4.206516e-02
  2.913295e+00    7.962918e+00   4.233473e-02
  2.917040e+00    7.955983e+00   4.251180e-02
  2.920786e+00    7.987356e+00   4.279715e-02
  2.924531e+00    8.011523e+00   4.305633e-02
  2.928276e+00    8.104987e+00   4.351069e-02
  2.932022e+00    7.990168e+00   4.340400e-02
  2.935767e+00    8.166031e+00   4.409093e-02
  2.939512e+00    8.069436e+00   4.402640e-02
  2.943257e+00    7.997902e+00   4.403686e-02
  2.947003e+00    8.081263e+00   4.447331e-02
  2.950748e+00    7.998370e+00   4.445667e-02
  2.954493e+00    7.939656e+00   4.450681e-02
  2.958238e+00    8.004696e+00   4.502426e-02
  2.961984e+00    8.017592e+00   4.540368e-02
  2.965729e+00    7.937028e+00   4.551692e-02
  2.969474e+00    7.913777e+00   4.579324e-02
  2.973219e+00    7.927585e+00   4.616973e-02
  2.976965e+00    8.003945e+00   4.674870e-02
  2.980710e+00    7.945327e+00   4.693364e-02
  2.984455e+00    7.850156e+00   4.700612e-02
  2.988201e+00    7.834147e+00   4.730335e-02
  2.991946e+00    7.813560e+00   4.758127e-02
  2.995691e+00    7.815413e+00   4.796046e-02
  2.999436e+00    7.670076e+00   4.786551e-02
  3.003182e+00    7.695134e+00   4.830122e-02
  3.006927e+00    7.767661e+00   4.889573e-02
  3.010672e+00    7.793066e+00   4.934681e-02
  3.014417e+00    7.852945e+00   4.990029e-02
  3.018163e+00    7.801356e+00   5.014066e-02
  3.021908e+00    7.834647e+00   5.062078e-02
  3.025653e+00    7.823731e+00   5.097244e-02
  3.029398e+00    7.742807e+00   5.110633e-02
  3.033144e+00    7.851441e+00   5.184213e-02
  3.036889e+00    7.925758e+00   5.267052e-02
  3.040634e+00    8.103983e+00   5.407279e-02
  3.044379e+00    8.031167e+00   5.462493e-02
  3.048125e+00    7.885538e+00   5.495709e-02
  3.051870e+00    7.824304e+00   5.538470e-02
  3.055615e+00    7.745574e+00   5.593443e-02
  3.059361e+00    7.771677e+00   5.689559e-02
  3.063106e+00    7.834446e+00   5.799118e-02
  3.066851e+00    7.807921e+00   5.879848e-02
  3.070596e+00    7.850853e+00   5.969953e-02
  3.074342e+00    7.900315e+00   6.087924e-02
  3.078087e+00    7.969847e+00   6.210592e-02
  3.081832e+00    7.853483e+00   6.269663e-02
  3.085577e+00    7.889567e+00   6.388018e-02
  3.089323e+00    7.892316e+00   6.488006e-02
  3.093068e+00    7.856534e+00   6.676618e-02
  3.096813e+00    7.883501e+00   6.937535e-02
  3.100558e+00    7.894994e+00   7.200816e-02
  3.104304e+00    8.029274e+00   7.541157e-02
  3.108049e+00    7.973450e+00   7.796810e-02
  3.111794e+00    7.911195e+00   8.065241e-02
  3.115539e+00    7.988228e+00   8.451636e-02
  3.119285e+00    7.858983e+00   8.764075e-02
  3.123030e+00    8.052391e+00   9.263753e-02
  3.126775e+00    8.421526e+00   9.933961e-02
  3.130521e+00    8.420393e+00   1.048492e-01
  3.134266e+00    8.332889e+00   1.106178e-01
  3.138011e+00    8.488780e+00   1.185315e-01
  3.141756e+00    8.355435e+00   1.258583e-01
  3.145502e+00    8.529486e+00   1.380349e-01
  3.149247e+00    8.906990e+00   1.553181e-01
  3.152992e+00    8.711359e+00   1.715387e-01
  3.156737e+00    8.882653e+00   1.975891e-01
  3.160483e+00    8.843268e+00   2.402412e-01
  3.164228e+00    8.377669e+00   3.237101e-01
  3.167973e+00    8.015051e+00   7.272328e-01
  3.171718e+00    0.000000e+00   0.000000e+00
  3.175464e+00    0.000000e+00   0.000000e+00
  3.179209e+00    0.000000e+00   0.000000e+00
  3.182954e+00    0.000000e+00   0.000000e+00
  3.186699e+00    0.000000e+00   0.000000e+00
  3.190445e+00    0.000000e+00   0.000000e+00
  3.194190e+00    0.000000e+00   0.000000e+00
  3.197935e+00    0.000000e+00   0.000000e+00
  3.201681e+00    0.000000e+00   0.000000e+00
  3.205426e+00    0.000000e+00   0.000000e+00
  3.209171e+00    0.000000e+00   0.000000e+00
  3.212916e+00    0.000000e+00   0.000000e+00
  3.216662e+00    0.000000e+00   0.000000e+00
  3.220407e+00    0.000000e+00   0.000000e+00
  3.224152e+00    0.000000e+00   0.000000e+00
  3.227897e+00    0.000000e+00   0.000000e+00
  3.231643e+00    0.000000e+00   0.000000e+00
  3.235388e+00    0.000000e+00   0.000000e+00
  3.239133e+00    0.000000e+00   0.000000e+00
  3.242878e+00    0.000000e+00   0.000000e+00
  3.246624e+00    0.000000e+00   0.000000e+00
  3.250369e+00    0.000000e+00   0.000000e+00
  3.254114e+00    0.000000e+00   0.000000e+00
  3.257860e+00    0.000000e+00   0.000000e+00
  3.261605e+00    0.000000e+00   0.000000e+00
  3.265350e+00    0.000000e+00   0.000000e+00
  3.269095e+00    0.000000e+00   0.000000e+00
  3.272841e+00    0.000000e+00   0.000000e+00
  3.276586e+00    0.000000e+00   0.000000e+00
  3.280331e+00    0.000000e+00   0.000000e+00
  3.284076e+00    0.000000e+00   0.000000e+00
  3.287822e+00    0.000000e+00   0.000000e+00
  3.291567e+00    0.000000e+00   0.000000e+00
  3.295312e+00    0.000000e+00   0.000000e+00
  3.299057e+00    0.000000e+00   0.000000e+00
  3.302803e+00    0.000000e+00   0.000000e+00
  3.306548e+00    0.000000e+00   0.000000e+00
  3.310293e+00    0.000000e+00   0.000000e+00
  3.314038e+00    0.000000e+00   0.000000e+00
  3.317784e+00    0.000000e+00   0.000000e+00
  3.321529e+00    0.000000e+00   0.000000e+00
  3.325274e+00    0.000000e+00   0.000000e+00
  3.329020e+00    0.000000e+00   0.000000e+00
  3.332765e+00    0.000000e+00   0.000000e+00
  3.336510e+00    0.000000e+00   0.000000e+00
  3.340255e+00    0.000000e+00   0.000000e+00
  3.344001e+00    0.000000e+00   0.000000e+00
  3.347746e+00    0.000000e+00   0.000000e+00
  3.351491e+00    0.000000e+00   0.000000e+00
  3.355236e+00    0.000000e+00   0.000000e+00
  3.358982e+00    0.000000e+00   0.000000e+00
  3.362727e+00    0.000000e+00   0.000000e+00
  3.366472e+00    0.000000e+00   0.000000e+00
  3.370217e+00    0.000000e+00   0.000000e+00
  3.373963e+00    0.000000e+00   0.000000e+00
  3.377708e+00    0.000000e+00   0.000000e+00
  3.381453e+00    0.000000e+00   0.000000e+00
  3.385198e+00    0.000000e+00   0.000000e+00
  3.388944e+00    0.000000e+00   0.000000e+00
  3.392689e+00    0.000000e+00   0.000000e+00
  3.396434e+00    0.000000e+00   0.000000e+00
  3.400180e+00    0.000000e+00   0.000000e+00
  3.403925e+00    0.000000e+00   0.000000e+00
  3.407670e+00    0.000000e+00   0.000000e+00
  3.411415e+00    0.000000e+00   0.000000e+00
  3.415161e+00    0.000000e+00   0.000000e+00
  3.418906e+00    0.000000e+00   0.000000e+00
  3.422651e+00    0.000000e+00   0.000000e+00
  3.426396e+00    0.000000e+00   0.000000e+00
  3.430142e+00    0.000000e+00   0.000000e+00
  3.433887e+00    0.000000e+00   0.000000e+00
  3.437632e+00    0.000000e+00   0.000000e+00
  3.441377e+00    0.000000e+00   0.000000e+00
  3.445123e+00    0.000000e+00   0.000000e+00
  3.448868e+00    0.000000e+00   0.000000e+00
  3.452613e+00    0.000000e+00   0.000000e+00
  3.456358e+00    0.000000e+00   0.000000e+00
  3.460104e+00    0.000000e+00   0.000000e+00
  3.463849e+00    0.000000e+00   0.000000e+00
  3.467594e+00    0.000000e+00   0.000000e+00
  3.471340e+00    0.000000e+00   0.000000e+00
  3.475085e+00    0.000000e+00   0.000000e+00
  3.478830e+00    0.000000e+00   0.000000e+00
  3.482575e+00    0.000000e+00   0.000000e+00
  3.486321e+00    0.000000e+00   0.000000e+00
  3.490066e+00    0.000000e+00   0.000000e+00
  3.493811e+00    0.000000e+00   0.000000e+00
  3.497556e+00    0.000000e+00   0.000000e+00
  3.501302e+00    0.000000e+00   0.000000e+00
  3.505047e+00    0.000000e+00   0.000000e+00
  3.508792e+00    0.000000e+00   0.000000e+00
  3.512537e+00    0.000000e+00   0.000000e+00
  3.516283e+00    0.000000e+00   0.000000e+00
  3.520028e+00    0.000000e+00   0.000000e+00
  3.523773e+00    0.000000e+00   0.000000e+00
  3.527519e+00    0.000000e+00   0.000000e+00
  3.531264e+00    0.000000e+00   0.000000e+00
  3.535009e+00    0.000000e+00   0.000000e+00
  3.538754e+00    0.000000e+00   0.000000e+00
  3.542500e+00    0.000000e+00   0.000000e+00
  3.546245e+00    0.000000e+00   0.000000e+00
  3.549990e+00    0.000000e+00   0.000000e+00
  3.553735e+00    0.000000e+00   0.000000e+00
  3.557481e+00    0.000000e+00   0.000000e+00
  3.561226e+00    0.000000e+00   0.000000e+00
  3.564971e+00    0.000000e+00   0.000000e+00
  3.568716e+00    0.000000e+00   0.000000e+00
  3.572462e+00    0.000000e+00   0.000000e+00
  3.576207e+00    0.000000e+00   0.000000e+00
  3.579952e+00    0.000000e+00   0.000000e+00
  3.583697e+00    0.000000e+00   0.000000e+00
  3.587443e+00    0.000000e+00   0.000000e+00
  3.591188e+00    0.000000e+00   0.000000e+00
  3.594933e+00    0.000000e+00   0.000000e+00
  3.598679e+00    0.000000e+00   0.000000e+00
  3.602424e+00    0.000000e+00   0.000000e+00
  3.606169e+00    0.000000e+00   0.000000e+00
  3.609914e+00    0.000000e+00   0.000000e+00
  3.613660e+00    0.000000e+00   0.000000e+00
  3.617405e+00    0.000000e+00   0.000000e+00
  3.621150e+00    0.000000e+00   0.000000e+00
  3.624895e+00    0.000000e+00   0.000000e+00
  3.628641e+00    0.000000e+00   0.000000e+00
  3.632386e+00    0.000000e+00   0.000000e+00
  3.636131e+00    0.000000e+00   0.000000e+00
  3.639876e+00    0.000000e+00   0.000000e+00
  3.643622e+00    0.000000e+00   0.000000e+00
  3.647367e+00    0.000000e+00   0.000000e+00
  3.651112e+00    0.000000e+00   0.000000e+00
  3.654857e+00    0.000000e+00   0.000000e+00
  3.658603e+00    0.000000e+00   0.000000e+00
  3.662348e+00    0.000000e+00   0.000000e+00
  3.666093e+00    0.000000e+00   0.000000e+00
  3.669839e+00    0.000000e+00   0.000000e+00
  3.673584e+00    0.000000e+00   0.000000e+00
  3.677329e+00    0.000000e+00   0.000000e+00
  3.681074e+00    0.000000e+00   0.000000e+00
  3.684820e+00    0.000000e+00   0.000000e+00
  3.688565e+00    0.000000e+00   0.000000e+00
  3.692310e+00    0.000000e+00   0.000000e+00
  3.696055e+00    0.000000e+00   0.000000e+00
  3.699801e+00    0.000000e+00   0.000000e+00
  3.703546e+00    0.000000e+00   0.000000e+00
  3.707291e+00    0.000000e+00   0.000000e+00
  3.711036e+00    0.000000e+00   0.000000e+00
  3.714782e+00    0.000000e+00   0.000000e+00
  3.718527e+00    0.000000e+00   0.000000e+00
  3.722272e+00    0.000000e+00   0.000000e+00
  3.726017e+00    0.000000e+00   0.000000e+00
  3.729763e+00    0.000000e+00   0.000000e+00
  3.733508e+00    0.000000e+00   0.000000e+00
  3.737253e+00    0.000000e+00   0.000000e+00
  3.740999e+00    0.000000e+00   0.000000e+00
  3.744744e+00    0.000000e+00   0.000000e+00
  3.748489e+00    0.000000e+00   0.000000e+00
  3.752234e+00    0.000000e+00   0.000000e+00
  3.755980e+00    0.000000e+00   0.000000e+00
  3.759725e+00    0.000000e+00   0.000000e+00
  3.763470e+00    0.000000e+00   0.000000e+00
  3.767215e+00    0.000000e+00   0.000000e+00
